'Reservoirs in mol, fluxes in mol s-1'
'Time (Myr)' 	 'Tmantle (K)' 	 RCmantle 	 RCatmoc 	 RCocean 	 FCoutgas 	 FCcontw 	 FCseafsubd 	 'Net C flux'
Init 	 6029.78 	 9.49803e+21 	 9.49803e+20 	 8.73929e+20 	 0 	 0 	 0 	 0 
0 	 3262.84 	 2.34758e+14 	 9.62919e+14 	 14637.6 	 0.849515 	 9436.21 	 0 	 42.0888
0.01 	 3203.68 	 1.65383e+10 	 8.04017e+18 	 957.205 	 12.7324 	 388.92 	 0 	 0.353061
0.02 	 3174.13 	 3.02742e+09 	 4.28025e+19 	 618.221 	 19.5141 	 220.763 	 0 	 0.151365
0.03 	 3147.94 	 2.34776e+09 	 5.46342e+19 	 587.119 	 20.3614 	 202.798 	 0 	 0.133295
0.04 	 3124.21 	 1.91709e+09 	 6.62426e+19 	 558.99 	 21.2085 	 189.547 	 0 	 0.120486
0.05 	 3102.58 	 1.59306e+09 	 7.9055e+19 	 513.694 	 22.9026 	 178.155 	 0 	 0.109832
0.06 	 3082.75 	 1.34244e+09 	 9.30982e+19 	 491.886 	 23.7495 	 168.253 	 0 	 0.100823
0.07 	 3064.55 	 1.13587e+09 	 1.09168e+20 	 471.859 	 24.5963 	 159.134 	 0 	 0.0927695
0.08 	 3047.72 	 9.79791e+08 	 1.25735e+20 	 453.391 	 25.443 	 151.464 	 0 	 0.0861603
0.09 	 3032.08 	 8.52659e+08 	 1.43481e+20 	 436.305 	 26.2896 	 144.603 	 0 	 0.0803997
0.1 	 3017.52 	 7.49026e+08 	 1.62408e+20 	 420.451 	 27.1361 	 138.472 	 0 	 0.0753555
0.11 	 3003.92 	 6.6308e+08 	 1.82485e+20 	 405.701 	 27.9825 	 132.942 	 0 	 0.0709005
0.12 	 2991.22 	 5.86188e+08 	 2.05233e+20 	 391.95 	 28.8288 	 127.587 	 0 	 0.0666824
0.13 	 2985.4 	 3.96626e+08 	 2.27652e+20 	 350.016 	 32.2131 	 111.951 	 0 	 0.0548509
0.14 	 2979.79 	 3.75192e+08 	 2.40206e+20 	 349.288 	 32.2131 	 109.909 	 0 	 0.0533637
0.15 	 2974.36 	 3.57791e+08 	 2.51583e+20 	 339.665 	 33.059 	 108.168 	 0 	 0.0521115
0.16 	 2969.15 	 3.38391e+08 	 2.6515e+20 	 339.006 	 33.059 	 106.188 	 0 	 0.0506938
0.17 	 2964.1 	 3.23666e+08 	 2.76896e+20 	 329.928 	 33.9047 	 104.611 	 0 	 0.0495786
0.18 	 2959.22 	 3.09641e+08 	 2.88777e+20 	 329.326 	 33.9047 	 103.078 	 0 	 0.0484925
0.19 	 2954.51 	 2.96625e+08 	 3.00786e+20 	 320.745 	 34.7504 	 101.6 	 0 	 0.0474624
0.2 	 2949.94 	 2.84517e+08 	 3.12913e+20 	 320.196 	 34.7504 	 100.198 	 0 	 0.0464836
0.21 	 2945.52 	 2.73242e+08 	 3.25152e+20 	 319.664 	 34.7504 	 98.8565 	 0 	 0.0455533
0.22 	 2941.24 	 2.62487e+08 	 3.37499e+20 	 311.568 	 35.5959 	 97.5398 	 0 	 0.0446607
0.23 	 2937.06 	 2.52924e+08 	 3.49956e+20 	 311.078 	 35.5959 	 96.3405 	 0 	 0.0438396
0.24 	 2933.01 	 2.43668e+08 	 3.62558e+20 	 303.396 	 36.4414 	 95.1381 	 0 	 0.0430299
0.25 	 2929.08 	 2.34982e+08 	 3.75264e+20 	 302.945 	 36.4414 	 93.9939 	 0 	 0.042256
0.26 	 2925.26 	 2.26823e+08 	 3.88062e+20 	 302.506 	 36.4414 	 92.8932 	 0 	 0.041516
0.27 	 2921.54 	 2.19147e+08 	 4.00951e+20 	 295.231 	 37.2867 	 91.8213 	 0 	 0.0408075
0.28 	 2917.93 	 2.11914e+08 	 4.13926e+20 	 294.826 	 37.2867 	 90.7997 	 0 	 0.0401284
0.29 	 2914.41 	 2.05093e+08 	 4.26985e+20 	 287.905 	 38.132 	 89.803 	 0 	 0.0394773
0.3 	 2911.01 	 1.96947e+08 	 4.43577e+20 	 287.532 	 38.132 	 88.6076 	 0 	 0.0386967
0.31 	 2907.67 	 1.91115e+08 	 4.56873e+20 	 287.167 	 38.132 	 87.7242 	 0 	 0.0381194
0.32 	 2904.43 	 1.85397e+08 	 4.70233e+20 	 280.591 	 38.9772 	 86.8289 	 0 	 0.0375448
0.33 	 2901.26 	 1.79973e+08 	 4.83676e+20 	 280.251 	 38.9772 	 85.9739 	 0 	 0.0369915
0.34 	 2898.16 	 1.74826e+08 	 4.97192e+20 	 279.92 	 38.9772 	 85.1463 	 0 	 0.0364587
0.35 	 2895.14 	 1.69929e+08 	 5.10781e+20 	 273.662 	 39.8223 	 84.3326 	 0 	 0.0359444
0.36 	 2892.19 	 1.65271e+08 	 5.24441e+20 	 273.352 	 39.8223 	 83.5549 	 0 	 0.0354484
0.37 	 2889.3 	 1.60694e+08 	 5.3817e+20 	 273.049 	 39.8223 	 82.7854 	 0 	 0.0349643
0.38 	 2886.46 	 1.5661e+08 	 5.51978e+20 	 267.083 	 40.6673 	 82.0671 	 0 	 0.0345171
0.39 	 2883.68 	 1.52552e+08 	 5.65906e+20 	 266.798 	 40.6673 	 81.3521 	 0 	 0.0340669
0.4 	 2880.96 	 1.48675e+08 	 5.79911e+20 	 266.518 	 40.6673 	 80.6571 	 0 	 0.0336313
0.41 	 2878.3 	 1.44968e+08 	 5.93984e+20 	 260.826 	 41.5121 	 79.9705 	 0 	 0.0332094
0.42 	 2875.69 	 1.4142e+08 	 6.08124e+20 	 260.563 	 41.5121 	 79.3128 	 0 	 0.0328005
0.43 	 2873.13 	 1.38024e+08 	 6.2233e+20 	 260.305 	 41.5121 	 78.6726 	 0 	 0.0324042
0.44 	 2870.62 	 1.34767e+08 	 6.36602e+20 	 254.866 	 42.3569 	 78.0387 	 0 	 0.0320197
0.45 	 2868.16 	 1.31644e+08 	 6.50941e+20 	 254.623 	 42.3569 	 77.4311 	 0 	 0.0316465
0.46 	 2865.75 	 1.28645e+08 	 6.65345e+20 	 254.385 	 42.3569 	 76.8386 	 0 	 0.031284
0.47 	 2863.4 	 1.24672e+08 	 6.85232e+20 	 249.184 	 43.2017 	 76.0375 	 0 	 0.030806
0.48 	 2861.08 	 1.22041e+08 	 6.99864e+20 	 248.959 	 43.2017 	 75.4988 	 0 	 0.0304792
0.49 	 2858.8 	 1.19408e+08 	 7.14515e+20 	 248.739 	 43.2017 	 74.9518 	 0 	 0.0301486
0.5 	 2856.56 	 1.1687e+08 	 7.29246e+20 	 248.522 	 43.2017 	 74.417 	 0 	 0.0298265
0.51 	 2854.36 	 1.14425e+08 	 7.44043e+20 	 243.548 	 44.0463 	 73.8846 	 0 	 0.0295128
0.52 	 2852.19 	 1.12067e+08 	 7.58909e+20 	 243.342 	 44.0463 	 73.3736 	 0 	 0.0292072
0.53 	 2850.06 	 1.09791e+08 	 7.73843e+20 	 243.14 	 44.0463 	 72.8735 	 0 	 0.0289091
0.54 	 2847.96 	 1.07595e+08 	 7.88847e+20 	 238.371 	 44.8908 	 72.3748 	 0 	 0.0286185
0.55 	 2845.9 	 1.05473e+08 	 8.0392e+20 	 238.178 	 44.8908 	 71.8958 	 0 	 0.0283349
0.56 	 2843.86 	 1.03331e+08 	 8.19064e+20 	 237.989 	 44.8908 	 71.4136 	 0 	 0.0280539
0.57 	 2841.85 	 1.01429e+08 	 8.34292e+20 	 237.801 	 44.8908 	 70.9727 	 0 	 0.0277945
0.58 	 2839.86 	 9.95001e+07 	 8.49649e+20 	 233.229 	 45.7352 	 70.5106 	 0 	 0.0275289
0.59 	 2837.91 	 9.76309e+07 	 8.65093e+20 	 233.05 	 45.7352 	 70.0663 	 0 	 0.0272691
0.6 	 2835.98 	 9.58215e+07 	 8.80611e+20 	 232.874 	 45.7352 	 69.6307 	 0 	 0.0270153
0.61 	 2834.08 	 9.40678e+07 	 8.96203e+20 	 232.7 	 45.7352 	 69.2034 	 0 	 0.0267669
0.62 	 2832.2 	 9.23685e+07 	 9.11871e+20 	 228.314 	 46.5795 	 68.775 	 0 	 0.026524
0.63 	 2830.35 	 9.0719e+07 	 9.27615e+20 	 228.148 	 46.5795 	 68.3632 	 0 	 0.0262861
0.64 	 2828.52 	 8.91191e+07 	 9.43437e+20 	 227.984 	 46.5795 	 67.9589 	 0 	 0.0260533
0.65 	 2826.72 	 8.75657e+07 	 9.59338e+20 	 227.822 	 46.5795 	 67.5617 	 0 	 0.0258253
0.66 	 2824.94 	 8.60567e+07 	 9.75318e+20 	 223.609 	 47.4238 	 67.1625 	 0 	 0.0256018
0.67 	 2823.2 	 8.38474e+07 	 9.99381e+20 	 223.456 	 47.4238 	 66.59 	 0 	 0.0252784
0.68 	 2821.47 	 8.25014e+07 	 1.01565e+21 	 223.304 	 47.4238 	 66.2318 	 0 	 0.0250747
0.69 	 2819.76 	 8.11341e+07 	 1.0319e+21 	 223.153 	 47.4238 	 65.8638 	 0 	 0.024866
0.7 	 2818.07 	 7.98032e+07 	 1.04826e+21 	 219.104 	 48.2679 	 65.4931 	 0 	 0.0246612
0.71 	 2816.4 	 7.85075e+07 	 1.06469e+21 	 218.96 	 48.2679 	 65.1367 	 0 	 0.0244602
0.72 	 2814.75 	 7.72456e+07 	 1.08122e+21 	 218.817 	 48.2679 	 64.7858 	 0 	 0.0242628
0.73 	 2813.12 	 7.60162e+07 	 1.09783e+21 	 218.675 	 48.2679 	 64.4403 	 0 	 0.024069
0.74 	 2811.51 	 7.48181e+07 	 1.11453e+21 	 214.78 	 49.112 	 64.0915 	 0 	 0.0238785
0.75 	 2809.91 	 7.36508e+07 	 1.13133e+21 	 214.644 	 49.112 	 63.7564 	 0 	 0.0236915
0.76 	 2808.33 	 7.25124e+07 	 1.14821e+21 	 214.509 	 49.112 	 63.4262 	 0 	 0.0235077
0.77 	 2806.76 	 7.1401e+07 	 1.16518e+21 	 214.376 	 49.112 	 63.1005 	 0 	 0.0233269
0.78 	 2805.21 	 7.03172e+07 	 1.18225e+21 	 210.625 	 49.9559 	 62.7713 	 0 	 0.0231492
0.79 	 2803.68 	 6.91988e+07 	 1.19941e+21 	 210.496 	 49.9559 	 62.4435 	 0 	 0.022971
0.8 	 2802.15 	 6.82143e+07 	 1.21669e+21 	 210.368 	 49.9559 	 62.1459 	 0 	 0.022807
0.81 	 2800.64 	 6.72009e+07 	 1.23412e+21 	 210.242 	 49.9559 	 61.8367 	 0 	 0.022637
0.82 	 2799.14 	 6.621e+07 	 1.25167e+21 	 210.116 	 49.9559 	 61.5312 	 0 	 0.0224695
0.83 	 2797.65 	 6.52418e+07 	 1.26932e+21 	 206.504 	 50.7998 	 61.2217 	 0 	 0.0223046
0.84 	 2796.18 	 6.42961e+07 	 1.28707e+21 	 206.383 	 50.7998 	 60.9245 	 0 	 0.0221423
0.85 	 2794.72 	 6.3371e+07 	 1.30492e+21 	 206.263 	 50.7998 	 60.6309 	 0 	 0.0219824
0.86 	 2793.28 	 6.2467e+07 	 1.32288e+21 	 206.144 	 50.7998 	 60.3412 	 0 	 0.0218251
0.87 	 2791.85 	 6.15827e+07 	 1.34093e+21 	 206.026 	 50.7998 	 60.0551 	 0 	 0.0216701
0.88 	 2790.43 	 6.07176e+07 	 1.3591e+21 	 202.545 	 51.6436 	 59.7647 	 0 	 0.0215173
0.89 	 2789.02 	 5.98709e+07 	 1.37737e+21 	 202.431 	 51.6436 	 59.4856 	 0 	 0.0213668
0.9 	 2787.62 	 5.90422e+07 	 1.39574e+21 	 202.318 	 51.6436 	 59.2098 	 0 	 0.0212184
0.91 	 2786.24 	 5.82308e+07 	 1.41423e+21 	 202.206 	 51.6436 	 58.9374 	 0 	 0.0210721
0.92 	 2784.88 	 5.69266e+07 	 1.44453e+21 	 198.847 	 52.4873 	 58.4926 	 0 	 0.0208408
0.93 	 2783.52 	 5.6194e+07 	 1.46342e+21 	 198.739 	 52.4873 	 58.2406 	 0 	 0.0207063
0.94 	 2782.18 	 5.54433e+07 	 1.48225e+21 	 198.632 	 52.4873 	 57.9801 	 0 	 0.0205675
0.95 	 2780.85 	 5.47075e+07 	 1.50121e+21 	 198.526 	 52.4873 	 57.7225 	 0 	 0.0204306
0.96 	 2779.52 	 5.39856e+07 	 1.52028e+21 	 195.282 	 53.3309 	 57.4599 	 0 	 0.0202953
0.97 	 2778.21 	 5.32783e+07 	 1.53947e+21 	 195.179 	 53.3309 	 57.2079 	 0 	 0.020162
0.98 	 2776.9 	 5.25847e+07 	 1.55878e+21 	 195.077 	 53.3309 	 56.9585 	 0 	 0.0200303
0.99 	 2775.61 	 5.19044e+07 	 1.57821e+21 	 194.975 	 53.3309 	 56.7118 	 0 	 0.0199003
1 	 2774.32 	 5.12369e+07 	 1.59776e+21 	 194.874 	 53.3309 	 56.4677 	 0 	 0.0197719
1.01 	 2773.04 	 5.0582e+07 	 1.61743e+21 	 191.742 	 54.1744 	 56.2186 	 0 	 0.0196451
1.02 	 2771.77 	 4.99392e+07 	 1.63722e+21 	 191.644 	 54.1744 	 55.9795 	 0 	 0.0195199
1.03 	 2770.51 	 4.93084e+07 	 1.65713e+21 	 191.547 	 54.1744 	 55.7427 	 0 	 0.0193962
1.04 	 2769.26 	 4.8647e+07 	 1.67717e+21 	 191.45 	 54.1744 	 55.4984 	 0 	 0.0192713
1.05 	 2768.01 	 4.80687e+07 	 1.69736e+21 	 191.353 	 54.1744 	 55.2776 	 0 	 0.0191565
1.06 	 2766.77 	 4.74692e+07 	 1.71774e+21 	 188.326 	 55.0178 	 55.0396 	 0 	 0.0190366
1.07 	 2765.53 	 4.68798e+07 	 1.73827e+21 	 188.232 	 55.0178 	 54.8108 	 0 	 0.0189181
1.08 	 2764.31 	 4.63014e+07 	 1.75892e+21 	 188.139 	 55.0178 	 54.5845 	 0 	 0.018801
1.09 	 2763.09 	 4.57327e+07 	 1.77971e+21 	 188.046 	 55.0178 	 54.3601 	 0 	 0.0186852
1.1 	 2761.88 	 4.51746e+07 	 1.80063e+21 	 187.954 	 55.0178 	 54.138 	 0 	 0.0185708
1.11 	 2760.67 	 4.46261e+07 	 1.82169e+21 	 185.026 	 55.8611 	 53.9109 	 0 	 0.0184577
1.12 	 2759.48 	 4.40867e+07 	 1.84287e+21 	 184.937 	 55.8611 	 53.6928 	 0 	 0.0183458
1.13 	 2758.29 	 4.3557e+07 	 1.86419e+21 	 184.848 	 55.8611 	 53.4769 	 0 	 0.0182353
1.14 	 2757.11 	 4.30363e+07 	 1.88564e+21 	 184.759 	 55.8611 	 53.263 	 0 	 0.018126
1.15 	 2755.93 	 4.25244e+07 	 1.90723e+21 	 184.671 	 55.8611 	 53.051 	 0 	 0.0180179
1.16 	 2754.76 	 4.20211e+07 	 1.92896e+21 	 181.839 	 56.7043 	 52.8339 	 0 	 0.0179109
1.17 	 2753.6 	 4.15262e+07 	 1.95083e+21 	 181.754 	 56.7043 	 52.6256 	 0 	 0.0178051
1.18 	 2752.46 	 4.06714e+07 	 1.98913e+21 	 181.669 	 56.7043 	 52.2677 	 0 	 0.017626
1.19 	 2751.32 	 4.02206e+07 	 2.01154e+21 	 181.585 	 56.7043 	 52.0738 	 0 	 0.0175281
1.2 	 2750.18 	 3.97576e+07 	 2.03382e+21 	 178.843 	 57.5474 	 51.8664 	 0 	 0.0174269
1.21 	 2749.06 	 3.93015e+07 	 2.05626e+21 	 178.761 	 57.5474 	 51.6673 	 0 	 0.0173267
1.22 	 2747.93 	 3.88527e+07 	 2.07885e+21 	 178.679 	 57.5474 	 51.4699 	 0 	 0.0172275
1.23 	 2746.82 	 3.84113e+07 	 2.10159e+21 	 178.598 	 57.5474 	 51.2742 	 0 	 0.0171293
1.24 	 2745.71 	 3.79765e+07 	 2.12447e+21 	 178.518 	 57.5474 	 51.08 	 0 	 0.0170321
1.25 	 2744.6 	 3.75488e+07 	 2.1475e+21 	 175.861 	 58.3904 	 50.8808 	 0 	 0.0169359
1.26 	 2743.5 	 3.71274e+07 	 2.17068e+21 	 175.782 	 58.3904 	 50.6897 	 0 	 0.0168406
1.27 	 2742.41 	 3.67128e+07 	 2.19401e+21 	 175.704 	 58.3904 	 50.5004 	 0 	 0.0167463
1.28 	 2741.32 	 3.63041e+07 	 2.21749e+21 	 175.626 	 58.3904 	 50.3123 	 0 	 0.0166529
1.29 	 2740.24 	 3.59021e+07 	 2.24112e+21 	 175.549 	 58.3904 	 50.1259 	 0 	 0.0165604
1.3 	 2739.16 	 3.55057e+07 	 2.26491e+21 	 172.974 	 59.2334 	 49.9341 	 0 	 0.0164687
1.31 	 2738.09 	 3.51157e+07 	 2.28885e+21 	 172.899 	 59.2334 	 49.7506 	 0 	 0.016378
1.32 	 2737.02 	 3.47011e+07 	 2.31294e+21 	 172.823 	 59.2334 	 49.5594 	 0 	 0.0162858
1.33 	 2735.95 	 3.43412e+07 	 2.33722e+21 	 172.748 	 59.2334 	 49.3875 	 0 	 0.0162011
1.34 	 2734.89 	 3.3967e+07 	 2.36172e+21 	 172.673 	 59.2334 	 49.2074 	 0 	 0.0161126
1.35 	 2733.83 	 3.35979e+07 	 2.38641e+21 	 170.177 	 60.0762 	 49.0221 	 0 	 0.0160248
1.36 	 2732.78 	 3.32338e+07 	 2.41126e+21 	 170.104 	 60.0762 	 48.8444 	 0 	 0.0159378
1.37 	 2731.73 	 3.28755e+07 	 2.43627e+21 	 170.031 	 60.0762 	 48.6682 	 0 	 0.0158516
1.38 	 2730.69 	 3.25224e+07 	 2.46144e+21 	 169.958 	 60.0762 	 48.4933 	 0 	 0.0157663
1.39 	 2729.65 	 3.21745e+07 	 2.48677e+21 	 169.886 	 60.0762 	 48.3198 	 0 	 0.0156817
1.4 	 2728.62 	 3.18315e+07 	 2.51226e+21 	 167.465 	 60.919 	 48.1411 	 0 	 0.0155979
1.41 	 2727.59 	 3.14935e+07 	 2.53792e+21 	 167.394 	 60.919 	 47.9701 	 0 	 0.0155149
1.42 	 2726.57 	 3.11603e+07 	 2.56373e+21 	 167.324 	 60.919 	 47.8003 	 0 	 0.0154326
1.43 	 2725.55 	 3.08319e+07 	 2.58972e+21 	 167.254 	 60.919 	 47.6318 	 0 	 0.015351
1.44 	 2724.53 	 3.05081e+07 	 2.61587e+21 	 167.184 	 60.919 	 47.4645 	 0 	 0.0152702
1.45 	 2723.52 	 3.01892e+07 	 2.64218e+21 	 164.835 	 61.7617 	 47.2923 	 0 	 0.0151902
1.46 	 2722.53 	 2.96041e+07 	 2.69094e+21 	 164.768 	 61.7617 	 46.9898 	 0 	 0.0150466
1.47 	 2721.53 	 2.93114e+07 	 2.71797e+21 	 164.7 	 61.7617 	 46.8345 	 0 	 0.0149721
1.48 	 2720.54 	 2.90107e+07 	 2.74477e+21 	 164.633 	 61.7617 	 46.6738 	 0 	 0.0148951
1.49 	 2719.56 	 2.87139e+07 	 2.77176e+21 	 164.567 	 61.7617 	 46.514 	 0 	 0.0148187
1.5 	 2718.58 	 2.84214e+07 	 2.79893e+21 	 162.286 	 62.6042 	 46.3494 	 0 	 0.014743
1.51 	 2717.6 	 2.81325e+07 	 2.82627e+21 	 162.221 	 62.6042 	 46.1919 	 0 	 0.0146679
1.52 	 2716.63 	 2.78476e+07 	 2.85378e+21 	 162.156 	 62.6042 	 46.0354 	 0 	 0.0145935
1.53 	 2715.66 	 2.75666e+07 	 2.88147e+21 	 162.091 	 62.6042 	 45.88 	 0 	 0.0145196
1.54 	 2714.69 	 2.72893e+07 	 2.90934e+21 	 162.027 	 62.6042 	 45.7257 	 0 	 0.0144464
1.55 	 2713.73 	 2.70156e+07 	 2.93738e+21 	 159.812 	 63.4467 	 45.5663 	 0 	 0.0143738
1.56 	 2712.77 	 2.67458e+07 	 2.9656e+21 	 159.749 	 63.4467 	 45.414 	 0 	 0.0143018
1.57 	 2711.82 	 2.64791e+07 	 2.99401e+21 	 159.686 	 63.4467 	 45.2626 	 0 	 0.0142304
1.58 	 2710.87 	 2.62163e+07 	 3.02259e+21 	 159.624 	 63.4467 	 45.1124 	 0 	 0.0141595
1.59 	 2709.92 	 2.59569e+07 	 3.05135e+21 	 159.561 	 63.4467 	 44.9631 	 0 	 0.0140893
1.6 	 2708.98 	 2.56781e+07 	 3.0803e+21 	 157.409 	 64.2891 	 44.8004 	 0 	 0.0140175
1.61 	 2708.03 	 2.54378e+07 	 3.10944e+21 	 157.348 	 64.2891 	 44.6603 	 0 	 0.0139518
1.62 	 2707.09 	 2.51873e+07 	 3.13886e+21 	 157.286 	 64.2891 	 44.5132 	 0 	 0.0138829
1.63 	 2706.15 	 2.494e+07 	 3.16849e+21 	 157.225 	 64.2891 	 44.367 	 0 	 0.0138146
1.64 	 2705.22 	 2.46959e+07 	 3.19831e+21 	 157.165 	 64.2891 	 44.2218 	 0 	 0.0137468
1.65 	 2704.29 	 2.44548e+07 	 3.22831e+21 	 157.104 	 64.2891 	 44.0774 	 0 	 0.0136796
1.66 	 2703.37 	 2.42168e+07 	 3.2585e+21 	 155.013 	 65.1314 	 43.9282 	 0 	 0.0136128
1.67 	 2702.44 	 2.3982e+07 	 3.28888e+21 	 154.954 	 65.1314 	 43.7857 	 0 	 0.0135467
1.68 	 2701.52 	 2.37501e+07 	 3.31944e+21 	 154.895 	 65.1314 	 43.6442 	 0 	 0.013481
1.69 	 2700.61 	 2.35212e+07 	 3.3502e+21 	 154.836 	 65.1314 	 43.5035 	 0 	 0.0134159
1.7 	 2699.69 	 2.32952e+07 	 3.38114e+21 	 154.778 	 65.1314 	 43.3637 	 0 	 0.0133513
1.71 	 2698.79 	 2.30721e+07 	 3.41227e+21 	 152.744 	 65.9736 	 43.2191 	 0 	 0.0132872
1.72 	 2697.88 	 2.28517e+07 	 3.44359e+21 	 152.687 	 65.9736 	 43.0811 	 0 	 0.0132236
1.73 	 2696.98 	 2.26342e+07 	 3.47511e+21 	 152.63 	 65.9736 	 42.9439 	 0 	 0.0131605
1.74 	 2696.09 	 2.22147e+07 	 3.53633e+21 	 152.573 	 65.9736 	 42.6816 	 0 	 0.0130418
1.75 	 2695.2 	 2.20139e+07 	 3.56877e+21 	 150.595 	 66.8157 	 42.547 	 0 	 0.0129827
1.76 	 2694.32 	 2.18082e+07 	 3.60081e+21 	 150.54 	 66.8157 	 42.414 	 0 	 0.0129219
1.77 	 2693.44 	 2.16048e+07 	 3.63308e+21 	 150.484 	 66.8157 	 42.2817 	 0 	 0.0128615
1.78 	 2692.56 	 2.14038e+07 	 3.66555e+21 	 150.429 	 66.8157 	 42.1502 	 0 	 0.0128016
1.79 	 2691.68 	 2.12054e+07 	 3.69822e+21 	 150.375 	 66.8157 	 42.0196 	 0 	 0.0127421
1.8 	 2690.81 	 2.10093e+07 	 3.73109e+21 	 148.449 	 67.6578 	 41.8841 	 0 	 0.012683
1.81 	 2689.94 	 2.08155e+07 	 3.76415e+21 	 148.396 	 67.6578 	 41.7549 	 0 	 0.0126244
1.82 	 2689.07 	 2.0624e+07 	 3.79742e+21 	 148.342 	 67.6578 	 41.6265 	 0 	 0.0125662
1.83 	 2688.21 	 2.0435e+07 	 3.83089e+21 	 148.289 	 67.6578 	 41.4989 	 0 	 0.0125085
1.84 	 2687.35 	 2.0248e+07 	 3.86456e+21 	 148.235 	 67.6578 	 41.372 	 0 	 0.0124511
1.85 	 2686.49 	 2.00632e+07 	 3.89843e+21 	 148.182 	 67.6578 	 41.2457 	 0 	 0.0123942
1.86 	 2685.64 	 1.98808e+07 	 3.93251e+21 	 146.309 	 68.4997 	 41.1149 	 0 	 0.0123377
1.87 	 2684.78 	 1.97004e+07 	 3.96679e+21 	 146.257 	 68.4997 	 40.9902 	 0 	 0.0122816
1.88 	 2683.93 	 1.95052e+07 	 4.00127e+21 	 146.205 	 68.4997 	 40.8587 	 0 	 0.0122242
1.89 	 2683.08 	 1.93374e+07 	 4.03599e+21 	 146.153 	 68.4997 	 40.7412 	 0 	 0.0121715
1.9 	 2682.24 	 1.91628e+07 	 4.071e+21 	 146.102 	 68.4997 	 40.6183 	 0 	 0.0121164
1.91 	 2681.39 	 1.899e+07 	 4.10626e+21 	 144.277 	 69.3415 	 40.4904 	 0 	 0.0120616
1.92 	 2680.55 	 1.88194e+07 	 4.14172e+21 	 144.226 	 69.3415 	 40.3688 	 0 	 0.0120073
1.93 	 2679.71 	 1.86506e+07 	 4.1774e+21 	 144.176 	 69.3415 	 40.2478 	 0 	 0.0119534
1.94 	 2678.88 	 1.84839e+07 	 4.21328e+21 	 144.125 	 69.3415 	 40.1275 	 0 	 0.0118998
1.95 	 2678.04 	 1.8319e+07 	 4.24937e+21 	 144.075 	 69.3415 	 40.0078 	 0 	 0.0118466
1.96 	 2677.21 	 1.81562e+07 	 4.28567e+21 	 142.297 	 70.1833 	 39.8837 	 0 	 0.0117939
1.97 	 2676.38 	 1.79951e+07 	 4.32219e+21 	 142.248 	 70.1833 	 39.7654 	 0 	 0.0117414
1.98 	 2675.56 	 1.78361e+07 	 4.35891e+21 	 142.199 	 70.1833 	 39.6479 	 0 	 0.0116894
1.99 	 2674.74 	 1.76788e+07 	 4.39584e+21 	 142.15 	 70.1833 	 39.531 	 0 	 0.0116378
2 	 2673.92 	 1.75232e+07 	 4.43299e+21 	 142.101 	 70.1833 	 39.4147 	 0 	 0.0115865
2.01 	 2673.1 	 1.73695e+07 	 4.47035e+21 	 142.053 	 70.1833 	 39.2991 	 0 	 0.0115355
2.02 	 2672.29 	 1.72176e+07 	 4.50793e+21 	 140.321 	 71.025 	 39.1791 	 0 	 0.011485
2.03 	 2671.48 	 1.69105e+07 	 4.58429e+21 	 140.274 	 71.025 	 38.9489 	 0 	 0.0113854
2.04 	 2670.68 	 1.67694e+07 	 4.62304e+21 	 140.227 	 71.025 	 38.8403 	 0 	 0.0113378
2.05 	 2669.88 	 1.66253e+07 	 4.66119e+21 	 140.18 	 71.025 	 38.7287 	 0 	 0.011289
2.06 	 2669.09 	 1.64828e+07 	 4.69959e+21 	 138.492 	 71.8665 	 38.6126 	 0 	 0.0112405
2.07 	 2668.29 	 1.63418e+07 	 4.73821e+21 	 138.446 	 71.8665 	 38.5022 	 0 	 0.0111923
2.08 	 2667.5 	 1.62023e+07 	 4.77705e+21 	 138.4 	 71.8665 	 38.3923 	 0 	 0.0111444
2.09 	 2666.71 	 1.60644e+07 	 4.81612e+21 	 138.354 	 71.8665 	 38.2831 	 0 	 0.0110969
2.1 	 2665.93 	 1.5928e+07 	 4.8554e+21 	 138.308 	 71.8665 	 38.1744 	 0 	 0.0110497
2.11 	 2665.14 	 1.5793e+07 	 4.89491e+21 	 136.663 	 72.708 	 38.0612 	 0 	 0.0110028
2.12 	 2664.36 	 1.56595e+07 	 4.93464e+21 	 136.618 	 72.708 	 37.9537 	 0 	 0.0109562
2.13 	 2663.58 	 1.55275e+07 	 4.97459e+21 	 136.573 	 72.708 	 37.8468 	 0 	 0.0109099
2.14 	 2662.81 	 1.5397e+07 	 5.01477e+21 	 136.528 	 72.708 	 37.7404 	 0 	 0.010864
2.15 	 2662.03 	 1.52678e+07 	 5.05517e+21 	 136.484 	 72.708 	 37.6346 	 0 	 0.0108183
2.16 	 2661.26 	 1.51402e+07 	 5.09579e+21 	 136.439 	 72.708 	 37.5294 	 0 	 0.010773
2.17 	 2660.49 	 1.50007e+07 	 5.13664e+21 	 134.835 	 73.5494 	 37.4129 	 0 	 0.0107264
2.18 	 2659.72 	 1.48814e+07 	 5.17775e+21 	 134.791 	 73.5494 	 37.3135 	 0 	 0.0106836
2.19 	 2658.95 	 1.47574e+07 	 5.21917e+21 	 134.747 	 73.5494 	 37.2096 	 0 	 0.010639
2.2 	 2658.18 	 1.46347e+07 	 5.26087e+21 	 134.704 	 73.5494 	 37.1061 	 0 	 0.0105947
2.21 	 2657.42 	 1.45132e+07 	 5.3028e+21 	 134.66 	 73.5494 	 37.0032 	 0 	 0.0105506
2.22 	 2656.66 	 1.43931e+07 	 5.34496e+21 	 133.094 	 74.3907 	 36.896 	 0 	 0.0105069
2.23 	 2655.9 	 1.42744e+07 	 5.38735e+21 	 133.052 	 74.3907 	 36.7942 	 0 	 0.0104635
