Title: Allan et al. 1989 (see Ghiorso 1997)

Solid Composition:
Pressure Temperature mass SiO2 TiO2 Al2O3 Fe2O3 Cr2O3 FeO MgO CaO Na2O K2O P2O5 H2O 
14000.00 1850.00 0.000000 ---
15000.00 1853.23 0.000000 ---
16000.00 1856.46 0.000000 ---
17000.00 1859.72 0.000000 ---
18000.00 1862.98 0.000000 ---
19000.00 1866.25 0.000000 ---
20000.00 1869.54 0.000000 ---
21000.00 1872.85 0.000000 ---
22000.00 1876.16 0.000000 ---
23000.00 1879.49 0.000000 ---
24000.00 1882.84 0.000000 ---
25000.00 1886.20 0.000000 ---
26000.00 1889.58 0.000000 ---
27000.00 1892.98 0.000000 ---
28000.00 1896.39 0.000000 ---
29000.00 1899.82 0.000000 ---
30000.00 1911.58 1.987100 42.1671 3.34805e-13 23.8521 1.77818e-11 2.07322e-15 7.31504 17.8361 8.82969 -2.59714e-13 3.08396e-15 9.99077e-14 0
31000.00 1924.54 4.219259 42.1546 1.60965e-13 23.845 8.37449e-12 1.07404e-15 7.32812 17.7636 8.90864 -1.22315e-13 1.45242e-15 4.70525e-14 0
32000.00 1937.25 6.351445 42.1424 1.06929e-13 23.8382 5.56316e-12 7.13487e-16 7.34238 17.6939 8.98314 -8.12537e-14 9.64841e-16 3.12569e-14 0
33000.00 1949.72 8.389233 42.1306 8.09551e-14 23.8314 4.21184e-12 5.40177e-16 7.35774 17.6268 9.05342 -6.15168e-14 6.69603e-16 2.40313e-14 0
34000.00 1961.95 10.337791 42.119 6.5696e-14 23.8249 3.41796e-12 4.3836e-16 7.37415 17.5622 9.11971 -4.99215e-14 5.4339e-16 1.9204e-14 0
35000.00 1973.96 12.201920 42.1077 5.56594e-14 23.8185 2.89578e-12 3.7139e-16 7.39152 17.5 9.1822 -4.22948e-14 4.18522e-16 1.62701e-14 0
36000.00 1985.75 13.986086 42.0967 4.85591e-14 23.8123 2.52638e-12 3.24013e-16 7.40982 17.44 9.24109 -3.68994e-14 3.65133e-16 1.41946e-14 0
37000.00 1997.33 15.694454 42.086 4.32733e-14 23.8062 2.25138e-12 2.88744e-16 7.42898 17.3822 9.29657 -3.28828e-14 3.25387e-16 1.26495e-14 0
38000.00 2008.71 17.330909 42.0755 3.91873e-14 23.8003 2.03879e-12 2.61479e-16 7.44895 17.3264 9.3488 -2.97779e-14 2.94663e-16 1.15439e-14 0
39000.00 2019.89 18.899084 42.0653 3.59357e-14 23.7945 1.86962e-12 2.39783e-16 7.46968 17.2726 9.39794 -2.73071e-14 2.70213e-16 1.06674e-14 0
40000.00 2030.88 20.402378 42.0552 3.26085e-14 23.7888 1.73186e-12 2.42307e-16 7.49114 17.2206 9.44415 -2.5295e-14 2.50303e-16 9.88142e-15 0