Title: Allan et al. 1989 (see Ghiorso 1997)

System Thermodynamic Data:
Pressure Temperature mass F phi S H V dVdP*10^6 dVdT*10^6 Cp logfO2(absolute) logfO2-QFM rhol rhos viscosity aH2O chisqr
99995.30 2066.99 100.265763 0.0575587529958947 -1.373671 243.051663 -1022697.539623 11.070411 -741.958450 9982.892371 121.246939 -3.535 0.000 -0.379505 3.596025 -0.565 1.65921e-64 0.000
99697.60 2066.49 100.265749 0.0580001984208926 -1.326461 243.339518 -1022435.193173 11.290407 -736.091722 9919.950933 121.250303 -3.538 0.000 -0.388310 3.595822 -0.556 2.17196e-63 0.000
99399.90 2065.98 100.265736 0.0584447497739538 -1.281399 243.624497 -1022185.467569 11.508626 -730.250003 9857.345136 121.253783 -3.541 0.000 -0.397366 3.595619 -0.546 2.7491e-62 0.000
99102.20 2065.47 100.265723 0.0588977933264345 -1.238307 243.907940 -1021945.524365 11.725195 -724.429976 9794.965236 121.257545 -3.544 0.000 -0.406727 3.595420 -0.537 3.37254e-61 0.000
98804.60 2064.96 100.265709 0.0593592989220241 -1.197072 244.189744 -1021715.405534 11.940048 -718.633621 9732.834162 121.261591 -3.547 0.000 -0.416404 3.595223 -0.528 4.00756e-60 0.000
98506.90 2064.45 100.265694 0.0598299773228428 -1.157550 244.470159 -1021494.783363 12.153340 -712.856913 9670.906830 121.265935 -3.549 0.000 -0.426418 3.595029 -0.518 4.62182e-59 0.000
98209.30 2063.95 100.265679 0.0603147322484326 -1.119628 244.750248 -1021281.155813 12.365047 -707.100615 9609.126482 121.270738 -3.552 0.000 -0.436824 3.594839 -0.508 5.17593e-58 0.000
97911.70 2063.44 100.265664 0.0608037210552740 -1.083259 245.027572 -1021079.656761 12.575019 -701.369139 9547.676406 121.275688 -3.555 0.000 -0.447550 3.594650 -0.499 5.61206e-57 0.000
97614.10 2062.93 100.265649 0.0613023606213981 -1.048321 245.303437 -1020887.526903 12.783379 -695.659239 9486.453369 121.280955 -3.558 0.000 -0.458658 3.594464 -0.489 5.90471e-56 0.000
97316.50 2062.42 100.265633 0.0618109126099101 -1.014729 245.577859 -1020704.682862 12.990137 -689.970892 9425.457602 121.286545 -3.561 0.000 -0.470168 3.594282 -0.479 6.03001e-55 0.000
97018.90 2061.91 100.265617 0.0623296493454149 -0.982406 245.850855 -1020531.040431 13.195298 -684.304073 9364.689317 121.292467 -3.564 0.000 -0.482099 3.594102 -0.469 5.97833e-54 0.000
96721.40 2061.40 100.265600 0.0628585860159040 -0.951291 246.122330 -1020366.612639 13.398801 -678.660706 9304.170664 121.298724 -3.567 0.000 -0.494467 3.593926 -0.459 5.75096e-53 0.000
96423.80 2060.90 100.265582 0.0634037264797897 -0.921268 246.393770 -1020208.540412 13.600906 -673.033740 9243.762988 121.305502 -3.570 0.000 -0.507356 3.593755 -0.449 5.38764e-52 0.000
96126.30 2060.39 100.265565 0.0639544907460311 -0.892353 246.662478 -1020062.090446 13.801257 -667.433290 9183.701098 121.312468 -3.573 0.000 -0.520676 3.593585 -0.439 4.89036e-51 0.000
95828.80 2059.88 100.265547 0.0645166378705637 -0.864449 246.929835 -1019924.489509 14.000045 -661.854246 9123.867171 121.319802 -3.576 0.000 -0.534509 3.593419 -0.429 4.31348e-50 0.000
95531.30 2059.37 100.265528 0.0650905000153711 -0.837502 247.195861 -1019795.648785 14.197277 -656.296576 9064.261335 121.327513 -3.579 0.000 -0.548881 3.593257 -0.418 3.69792e-49 0.000
95233.80 2058.86 100.265509 0.0656764227217035 -0.811463 247.460576 -1019675.478419 14.392961 -650.760251 9004.883702 121.335614 -3.582 0.000 -0.563822 3.593099 -0.408 3.08196e-48 0.000
94936.30 2058.35 100.265490 0.0662747653394708 -0.786286 247.724001 -1019563.887494 14.587106 -645.245236 8945.734367 121.344113 -3.585 0.000 -0.579362 3.592944 -0.397 2.49766e-47 0.000
94638.90 2057.85 100.265469 0.0668908328839044 -0.761911 247.987257 -1019458.361049 14.779762 -639.750352 8886.746583 121.353191 -3.587 0.000 -0.595589 3.592795 -0.387 1.97066e-46 0.000
94341.50 2057.34 100.265449 0.0675148580368961 -0.738336 248.248055 -1019363.732945 14.970786 -634.279749 8828.076195 121.362518 -3.590 0.000 -0.612423 3.592649 -0.376 1.50996e-45 0.000
94044.10 2056.83 100.265428 0.0681524596187944 -0.715500 248.507633 -1019277.398651 15.160296 -628.830335 8769.634079 121.372281 -3.593 0.000 -0.629963 3.592507 -0.365 1.12577e-44 0.000
93746.70 2056.32 100.265407 0.0688040554266029 -0.693366 248.766012 -1019199.262953 15.348300 -623.402075 8711.420267 121.382490 -3.596 0.000 -0.648250 3.592370 -0.354 8.16892e-44 0.000
93449.30 2055.81 100.265385 0.0694700786003532 -0.671901 249.023218 -1019129.229542 15.534807 -617.994929 8653.434779 121.393161 -3.599 0.000 -0.667326 3.592237 -0.343 5.77033e-43 0.000
93151.90 2055.30 100.265362 0.0701509777160554 -0.651072 249.279276 -1019067.201041 15.719825 -612.608857 8595.677627 121.404305 -3.602 0.000 -0.687239 3.592109 -0.332 3.96875e-42 0.000
92854.60 2054.79 100.265339 0.0708468884341413 -0.630858 249.534106 -1019013.137770 15.903298 -607.245670 8538.169529 121.415931 -3.605 0.000 -0.708032 3.591987 -0.321 2.65662e-41 0.000
92557.20 2054.28 100.265315 0.0715589408389260 -0.611216 249.787945 -1018966.820163 16.085364 -601.901617 8480.868966 121.428067 -3.608 0.000 -0.729775 3.591869 -0.310 1.73341e-40 0.000
92259.90 2053.77 100.265291 0.0722869661945458 -0.592132 250.040611 -1018928.262745 16.265902 -596.580351 8423.817279 121.440714 -3.611 0.000 -0.752512 3.591757 -0.298 1.10126e-39 0.000
91962.60 2053.27 100.265265 0.0730372269132982 -0.573556 250.293405 -1018894.889006 16.445092 -591.277033 8366.914282 121.454081 -3.614 0.000 -0.776394 3.591652 -0.287 6.82882e-39 0.000
91665.30 2052.76 100.265240 0.0737994256592666 -0.555504 250.544013 -1018871.437772 16.622730 -585.997520 8310.319800 121.467814 -3.617 0.000 -0.801335 3.591551 -0.275 4.1211e-38 0.000
91368.00 2052.25 100.265214 0.0745794920144575 -0.537932 250.793636 -1018855.382990 16.798931 -580.738816 8253.953539 121.482112 -3.620 0.000 -0.827486 3.591456 -0.263 2.42473e-37 0.000
91070.80 2051.74 100.265187 0.0753776047935969 -0.520826 251.042198 -1018846.665244 16.973644 -575.502687 8197.835744 121.496986 -3.623 0.000 -0.854918 3.591368 -0.252 1.39035e-36 0.000
90773.50 2051.23 100.265159 0.0761950450777422 -0.504154 251.289936 -1018845.093990 17.146997 -570.285469 8141.926113 121.512467 -3.626 0.000 -0.883742 3.591286 -0.240 7.78064e-36 0.000
90476.30 2050.72 100.265131 0.0770316341388691 -0.487908 251.536672 -1018850.650577 17.318879 -565.090731 8086.265063 121.528558 -3.629 0.000 -0.914032 3.591211 -0.228 4.24528e-35 0.000
90179.10 2050.21 100.265102 0.0778883048084513 -0.472064 251.782538 -1018863.190907 17.489359 -559.916629 8030.832672 121.545284 -3.632 0.000 -0.945904 3.591143 -0.216 2.26022e-34 0.000
89881.90 2049.70 100.265072 0.0787656247006623 -0.456606 252.027561 -1018882.614833 17.658446 -554.763128 7975.629267 121.562662 -3.635 0.000 -0.979473 3.591082 -0.203 1.17447e-33 0.000
89584.70 2049.19 100.265042 0.0796641590768574 -0.441516 252.271768 -1018908.823767 17.826148 -549.630198 7920.655278 121.580710 -3.638 0.000 -1.014866 3.591029 -0.191 5.95748e-33 0.000
89287.60 2048.68 100.265010 0.0805840530657244 -0.426785 252.515086 -1018941.749841 17.992416 -544.519578 7865.930894 121.599436 -3.641 0.000 -1.052204 3.590984 -0.179 2.94894e-32 0.000
88990.40 2048.17 100.264978 0.0815266711974857 -0.412387 252.757742 -1018981.239904 18.157373 -539.427709 7811.417459 121.618876 -3.644 0.000 -1.091668 3.590947 -0.166 1.42635e-31 0.000
88693.30 2047.66 100.264945 0.0824917063946726 -0.398320 252.999557 -1019027.258747 18.320912 -534.358100 7757.155024 121.639026 -3.647 0.000 -1.133393 3.590919 -0.154 6.73527e-31 0.000
88396.20 2047.15 100.264911 0.0834800754221690 -0.384563 253.240654 -1019079.691874 18.483101 -529.308978 7703.125025 121.659913 -3.649 0.000 -1.177576 3.590899 -0.141 3.10728e-30 0.000
88099.10 2046.64 100.264877 0.0844922498137263 -0.371106 253.481054 -1019138.458495 18.643945 -524.280347 7649.328761 121.681550 -3.652 0.000 -1.224418 3.590889 -0.128 1.40085e-29 0.000
87802.00 2046.13 100.264841 0.0855286610659372 -0.357936 253.720772 -1019203.483842 18.803453 -519.272216 7595.767787 121.703951 -3.655 0.000 -1.274140 3.590888 -0.115 6.1727e-29 0.000
87505.00 2045.62 100.264805 0.0865892239091473 -0.345046 253.959721 -1019274.715883 18.961577 -514.286335 7542.463056 121.727116 -3.658 0.000 -1.326968 3.590897 -0.102 2.65767e-28 0.000
87207.90 2045.12 100.264767 0.0876814747440623 -0.332401 254.199268 -1019349.687526 19.118533 -509.316429 7489.309080 121.751307 -3.661 0.000 -1.383374 3.590917 -0.089 1.12083e-27 0.000
86910.90 2044.61 100.264729 0.0887922275695299 -0.320032 254.436907 -1019433.124046 19.274019 -504.371703 7436.485644 121.776054 -3.664 0.000 -1.443304 3.590947 -0.076 4.61482e-27 0.000
86613.90 2044.10 100.264690 0.0899283424501897 -0.307908 254.673894 -1019522.596130 19.428196 -499.447641 7383.906742 121.801600 -3.667 0.000 -1.507269 3.590987 -0.063 1.85868e-26 0.000
86316.80 2043.59 100.264650 0.0910904190512037 -0.296018 254.910323 -1019618.066446 19.581122 -494.542629 7331.556937 121.827960 -3.670 0.000 -1.575671 3.591039 -0.050 7.32799e-26 0.000
86019.90 2043.08 100.264609 0.0922769330789997 -0.284364 255.145886 -1019719.540112 19.732643 -489.661855 7279.496209 121.855095 -3.673 0.000 -1.648850 3.591102 -0.037 2.82461e-25 0.000
85722.90 2042.57 100.264567 0.0934893005586941 -0.272927 255.380864 -1019826.988565 19.882924 -484.800350 7227.672495 121.883038 -3.676 0.000 -1.727360 3.591176 -0.023 1.06619e-24 0.000
85425.90 2042.06 100.264525 0.0947268001575769 -0.261704 255.615136 -1019940.426746 20.031914 -479.959946 7176.109166 121.911771 -3.679 0.000 -1.811708 3.591263 -0.010 3.94003e-24 0.000
85129.00 2041.55 100.264481 0.0959885593314359 -0.250691 255.848574 -1020059.874557 20.179568 -475.142465 7124.829654 121.941267 -3.682 0.000 -1.902462 3.591362 0.003 1.42509e-23 0.000
84832.10 2041.04 100.264437 0.0972746656478048 -0.239879 256.081242 -1020185.361145 20.325939 -470.346398 7073.820872 121.971525 -3.685 0.000 -2.000339 3.591473 0.017 5.04839e-23 0.000
84535.20 2040.53 100.264392 0.0985845688027102 -0.229262 256.313101 -1020316.931465 20.471030 -465.571933 7023.088679 122.002526 -3.688 0.000 -2.106125 3.591597 0.030 1.75195e-22 0.000
84238.30 2040.01 100.264347 0.0999106020196358 -0.218850 256.542937 -1020457.029848 20.614746 -460.822081 6972.704686 122.033988 -3.691 0.000 -2.220413 3.591732 0.044 5.95075e-22 0.000
83941.40 2039.50 100.264301 0.1012659747753083 -0.208606 256.773032 -1020600.945985 20.757285 -456.091432 6922.544143 122.066403 -3.694 0.000 -2.344832 3.591882 0.058 1.98301e-21 0.000
83644.50 2038.99 100.264254 0.1026429055696739 -0.198543 257.002165 -1020751.140878 20.898551 -451.383025 6872.679527 122.099485 -3.697 0.000 -2.480305 3.592045 0.071 6.4774e-21 0.000
83347.70 2038.48 100.264206 0.1040398947972071 -0.188658 257.230182 -1020907.681077 21.038496 -446.698712 6823.135377 122.133187 -3.700 0.000 -2.628187 3.592221 0.085 2.07353e-20 0.000
83050.90 2037.97 100.264158 0.1054565749708465 -0.178944 257.457122 -1021070.657597 21.177171 -442.037085 6773.900542 122.167493 -3.703 0.000 -2.790190 3.592410 0.098 6.50912e-20 0.000
82754.10 2037.46 100.264109 0.1068919700901116 -0.169398 257.682926 -1021240.153624 21.314577 -437.398375 6724.981762 122.202368 -3.706 0.000 -2.968287 3.592613 0.112 2.00414e-19 0.000
82457.30 2036.95 100.264061 0.1083450998849935 -0.160015 257.907536 -1021416.250297 21.450717 -432.782805 6676.385611 122.237780 -3.709 0.000 -3.164839 3.592829 0.126 6.05356e-19 0.000
82160.50 2036.44 100.264011 0.1098150027759301 -0.150792 258.130895 -1021599.024038 21.585593 -428.190586 6628.118399 122.273693 -3.712 0.000 -3.382697 3.593059 0.139 1.79416e-18 0.000
81863.70 2035.93 100.263962 0.1113007582317072 -0.141726 258.352952 -1021788.544029 21.719207 -423.621920 6580.186091 122.310075 -3.715 0.000 -3.625339 3.593302 0.153 5.21872e-18 0.000
81567.00 2035.42 100.263912 0.1128008727067471 -0.132816 258.573565 -1021984.843433 21.851515 -419.078565 6532.611263 122.346880 -3.718 0.000 -3.896943 3.593558 0.166 1.48952e-17 0.000
81270.20 2034.91 100.263863 0.1143158327871790 -0.124053 258.792879 -1022188.021109 21.982614 -414.557529 6485.364792 122.384112 -3.721 0.000 -4.203057 3.593828 0.180 4.17556e-17 0.000
80973.50 2034.40 100.263813 0.1158436820181750 -0.115438 259.010673 -1022398.056889 22.112416 -410.062097 6438.485156 122.421711 -3.724 0.000 -4.550201 3.594111 0.193 1.14905e-16 0.000
80676.80 2033.89 100.263764 0.1173844819773739 -0.106966 259.227011 -1022614.998445 22.240971 -405.590817 6391.959315 122.459674 -3.727 0.000 -4.947135 3.594408 0.207 3.10569e-16 0.000
80380.10 2033.38 100.263714 0.1189377762120414 -0.098633 259.441872 -1022838.852235 22.368286 -401.143790 6345.790704 122.497981 -3.730 0.000 -5.405141 3.594718 0.220 8.24629e-16 0.000
80083.50 2032.87 100.263665 0.1205025732463140 -0.090439 259.655151 -1023069.571214 22.494322 -396.722626 6299.998593 122.536600 -3.733 0.000 -5.938990 3.595042 0.234 2.15068e-15 0.000
79786.80 2032.36 100.263616 0.1220799739317821 -0.082373 259.867023 -1023307.206731 22.619173 -392.324310 6254.552429 122.575557 -3.736 0.000 -6.569432 3.595380 0.247 5.51425e-15 0.000
79490.20 2031.85 100.263567 0.1236685739889472 -0.074438 260.077308 -1023551.641579 22.742761 -387.951934 6209.486699 122.614809 -3.739 0.000 -7.324323 3.595731 0.261 1.38925e-14 0.000
79193.60 2031.33 100.263519 0.1252616412535860 -0.066640 260.284961 -1023805.195517 22.865047 -383.606554 6164.843333 122.654080 -3.742 0.000 -8.242370 3.596094 0.274 3.43819e-14 0.000
78897.00 2030.82 100.263471 0.1268741782801714 -0.058949 260.492283 -1024063.133475 22.986219 -379.283010 6120.508876 122.693952 -3.745 0.000 -9.387922 3.596473 0.287 8.37391e-14 0.000
78600.40 2030.31 100.263424 0.1284990199047862 -0.051375 260.698150 -1024327.717918 23.106197 -374.983875 6076.541419 122.734140 -3.749 0.000 -10.853345 3.596867 0.301 2.00582e-13 0.000
78303.80 2029.80 100.263377 0.1301365302501137 -0.043913 260.902586 -1024598.862277 23.224990 -370.709117 6032.941243 122.774651 -3.752 0.000 -12.793651 3.597275 0.314 4.72608e-13 0.000
78007.20 2029.29 100.263330 0.1317871692077009 -0.036560 261.105620 -1024876.470411 23.342608 -366.458694 5989.708361 122.815495 -3.755 0.000 -15.483369 3.597698 0.328 1.09555e-12 0.000
77710.70 2028.78 100.263284 0.1334507937984047 -0.029314 261.307199 -1025160.380537 23.459020 -362.234017 5946.857893 122.856669 -3.758 0.000 -19.457364 3.598136 0.341 2.49823e-12 0.000
77414.20 2028.27 100.263238 0.1351287141762023 -0.022168 261.507449 -1025450.533442 23.574278 -358.033543 5904.373875 122.898205 -3.761 0.000 -25.924774 3.598590 0.354 5.60674e-12 0.000
77117.70 2027.76 100.263193 0.1368216323940281 -0.015120 261.706412 -1025746.810794 23.688394 -353.857202 5862.255809 122.940124 -3.764 0.000 -38.300208 3.599059 0.368 1.23863e-11 0.000
76821.20 2027.24 100.263149 0.1385228803489369 -0.008178 261.903006 -1026051.379712 23.801293 -349.707358 5820.555786 122.982149 -3.767 0.000 -71.352599 3.599542 0.381 2.69207e-11 0.000
76524.70 2026.73 100.263105 0.1402481535775863 -0.001312 262.099530 -1026359.525630 23.913159 -345.579036 5779.167334 123.024894 -3.770 0.000 -448.177869 3.600045 0.394 5.76565e-11 0.000
76228.30 2026.22 100.263061 0.1419901900184299 0.005466 262.294820 -1026673.343831 24.023877 -341.476028 5738.157648 123.068068 -3.773 0.000 108.412190 3.600564 0.408 1.21583e-10 0.000
75931.80 2025.71 100.263018 0.1437513602194386 0.012165 262.489098 -1026992.831578 24.133539 -337.395396 5697.496637 123.111736 -3.776 0.000 49.092326 3.601101 0.421 2.52613e-10 0.000
75635.40 2025.20 100.262976 0.1455312055017965 0.018784 262.682245 -1027317.713228 24.242078 -333.339884 5657.212912 123.155885 -3.779 0.000 32.043557 3.601657 0.435 5.16951e-10 0.000
75339.00 2024.69 100.262935 0.1473314760176694 0.025329 262.874401 -1027647.915359 24.349546 -329.307980 5617.291287 123.200565 -3.782 0.000 23.951611 3.602231 0.448 1.04241e-09 0.000
75042.60 2024.17 100.262894 0.1491456995938314 0.031790 263.064500 -1027985.566977 24.455871 -325.301954 5577.781241 123.245501 -3.785 0.000 19.234252 3.602822 0.461 2.07019e-09 0.000
74746.20 2023.66 100.262854 0.1509900523306108 0.038198 263.254838 -1028325.977561 24.561234 -321.316979 5538.582189 123.291329 -3.788 0.000 16.136246 3.603436 0.475 4.05514e-09 0.000
74449.80 2023.15 100.262814 0.1528581690724750 0.044542 263.444350 -1028671.275095 24.665562 -317.355336 5499.744264 123.337779 -3.791 0.000 13.949868 3.604071 0.488 7.83085e-09 0.000
74153.50 2022.64 100.262776 0.1547504684417209 0.050824 263.633012 -1029021.232155 24.768834 -313.418297 5461.281142 123.384863 -3.794 0.000 12.325299 3.604727 0.502 1.4907e-08 0.000
73857.10 2022.13 100.262737 0.1566697220390198 0.057052 263.821048 -1029375.858127 24.871133 -309.503033 5423.165244 123.432658 -3.797 0.000 11.070189 3.605406 0.515 2.79911e-08 0.000
73560.80 2021.62 100.262700 0.1586156410079750 0.063226 264.008352 -1029734.841922 24.972402 -305.612173 5385.424176 123.481155 -3.800 0.000 10.072328 3.606107 0.529 5.18286e-08 0.000
73264.50 2021.10 100.262664 0.1605825218966988 0.069338 264.193949 -1030100.379901 25.072607 -301.746564 5348.092136 123.530100 -3.803 0.000 9.261201 3.606830 0.542 9.46137e-08 0.000
72968.30 2020.59 100.262628 0.1625864176588371 0.075414 264.380052 -1030467.700257 25.171891 -297.902836 5311.087438 123.580130 -3.806 0.000 8.587234 3.607581 0.556 1.70476e-07 0.000
72672.00 2020.08 100.262592 0.1646226052388997 0.081451 264.565770 -1030839.086826 25.270256 -294.080535 5274.432141 123.631019 -3.809 0.000 8.019048 3.608358 0.569 3.03172e-07 0.000
72375.70 2019.57 100.262558 0.1666917147898659 0.087449 264.751084 -1031214.300812 25.367680 -290.280914 5238.140553 123.682783 -3.813 0.000 7.533887 3.609162 0.583 5.32116e-07 0.000
72079.50 2019.06 100.262524 0.1687943733434157 0.093409 264.935974 -1031593.096991 25.464142 -286.505193 5202.226669 123.735440 -3.816 0.000 7.115087 3.609994 0.597 9.21718e-07 0.000
71783.30 2018.54 100.262492 0.1709248273598478 0.099324 265.119464 -1031977.680684 25.559610 -282.754228 5166.724589 123.788729 -3.819 0.000 6.750468 3.610852 0.610 1.57539e-06 0.000
71487.10 2018.03 100.262459 0.1731007944152614 0.105224 265.303865 -1032363.345005 25.654262 -279.023387 5131.543797 123.843341 -3.822 0.000 6.429304 3.611744 0.624 2.66016e-06 0.000
71190.90 2017.52 100.262428 0.1753158694148107 0.111098 265.488120 -1032752.202435 25.748029 -275.314857 5096.732268 123.898998 -3.825 0.000 6.144816 3.612668 0.638 4.43597e-06 0.000
70894.70 2017.01 100.262398 0.1775717387422089 0.116951 265.672299 -1033144.090506 25.840926 -271.628550 5062.292006 123.955746 -3.828 0.000 5.891167 3.613625 0.652 7.30626e-06 0.000
70598.60 2016.49 100.262369 0.1798607624174568 0.122770 265.855254 -1033541.040558 25.932855 -267.967905 5028.282122 124.013271 -3.831 0.000 5.664114 3.614612 0.665 1.18797e-05 0.000
70302.40 2015.98 100.262340 0.1822034022828579 0.128589 266.039484 -1033938.497889 26.024059 -264.325772 4994.590949 124.072342 -3.834 0.000 5.459022 3.615640 0.679 1.90969e-05 0.000
70006.30 2015.47 100.262312 0.1845912946229053 0.134395 266.223766 -1034338.389631 26.114407 -260.706856 4961.290467 124.132626 -3.837 0.000 5.273345 3.616705 0.693 3.03297e-05 0.000
69710.20 2014.96 100.262285 0.1870273106799626 0.140193 266.408256 -1034740.638098 26.203948 -257.109797 4928.371478 124.194201 -3.840 0.000 5.104474 3.617809 0.707 4.76059e-05 0.000
69414.10 2014.44 100.262260 0.1895045744152837 0.145973 266.591884 -1035147.380879 26.292614 -253.536754 4895.880792 124.256769 -3.843 0.000 4.950523 3.618951 0.721 7.38251e-05 0.000
69118.00 2013.93 100.262235 0.1920428423454020 0.151765 266.777014 -1035553.821462 26.380587 -249.983140 4863.734658 124.321088 -3.846 0.000 4.809260 3.620139 0.735 0.00011323 0.000
68822.00 2013.42 100.262212 0.1946344759445727 0.157559 266.962501 -1035961.986272 26.467771 -246.452342 4831.992150 124.386838 -3.849 0.000 4.679481 3.621373 0.749 0.000171683 0.000
68525.90 2012.91 100.262189 0.1972838056636419 0.163360 267.148591 -1036371.885619 26.554245 -242.941806 4800.634520 124.454140 -3.853 0.000 4.559822 3.622654 0.763 0.000257451 0.000
