Title: Primitive mantle composition from McDonough & Sun (1995),

Bulk Composition:
Pressure Temperature mass SiO2 TiO2 Al2O3 Fe2O3 Cr2O3 FeO MgO CaO Na2O K2O P2O5 H2O 
39887.50 1637.67 99.939186 45.0274 0.201122 4.45271 0.141691 0.384234 7.9274 37.823 3.55216 0.360219 0.0290176 0.0210128 0.0800487
39593.00 1637.36 99.939278 45.0273 0.201122 4.4527 0.142606 0.384233 7.92657 37.823 3.55216 0.360219 0.0290176 0.0210128 0.0800486
39298.60 1637.06 99.939372 45.0273 0.201122 4.4527 0.14354 0.384233 7.92573 37.8229 3.55215 0.360218 0.0290176 0.0210127 0.0800485
39004.20 1636.75 99.939467 45.0273 0.201122 4.4527 0.14449 0.384233 7.92486 37.8229 3.55215 0.360218 0.0290176 0.0210127 0.0800485
38709.80 1636.45 99.939564 45.0272 0.201122 4.45269 0.14546 0.384232 7.92398 37.8229 3.55215 0.360218 0.0290175 0.0210127 0.0800484
38415.40 1636.15 99.939663 45.0272 0.201121 4.45269 0.14645 0.384232 7.92308 37.8228 3.55214 0.360217 0.0290175 0.0210127 0.0800483
38121.10 1635.84 99.939764 45.0271 0.201121 4.45268 0.147456 0.384231 7.92217 37.8228 3.55214 0.360217 0.0290175 0.0210127 0.0800482
37826.80 1635.54 99.939867 45.0271 0.201121 4.45268 0.148485 0.384231 7.92124 37.8227 3.55214 0.360217 0.0290174 0.0210126 0.0800481
37532.40 1635.23 99.939972 45.027 0.201121 4.45267 0.149533 0.384231 7.92028 37.8227 3.55213 0.360216 0.0290174 0.0210126 0.080048
37238.10 1634.93 99.940079 45.027 0.201121 4.45267 0.150602 0.38423 7.91931 37.8227 3.55213 0.360216 0.0290174 0.0210126 0.080048
36943.90 1634.62 99.940188 45.0269 0.20112 4.45266 0.151692 0.38423 7.91832 37.8226 3.55212 0.360215 0.0290174 0.0210126 0.0800479
36649.60 1634.32 99.940300 45.0269 0.20112 4.45266 0.152806 0.384229 7.91731 37.8226 3.55212 0.360215 0.0290173 0.0210125 0.0800478
36355.30 1634.01 99.940413 45.0268 0.20112 4.45265 0.153941 0.384229 7.91628 37.8225 3.55212 0.360215 0.0290173 0.0210125 0.0800477
36061.10 1633.71 99.940529 45.0268 0.20112 4.45265 0.155101 0.384229 7.91523 37.8225 3.55211 0.360214 0.0290173 0.0210125 0.0800476
35766.90 1633.41 99.940648 45.0267 0.201119 4.45264 0.156285 0.384228 7.91415 37.8224 3.55211 0.360214 0.0290172 0.0210125 0.0800475
35472.70 1633.10 99.940769 45.0267 0.201119 4.45264 0.157493 0.384228 7.91306 37.8224 3.5521 0.360213 0.0290172 0.0210124 0.0800474
35178.50 1632.80 99.940893 45.0266 0.201119 4.45263 0.158728 0.384227 7.91194 37.8224 3.5521 0.360213 0.0290172 0.0210124 0.0800473
34884.30 1632.49 99.941019 45.0266 0.201119 4.45263 0.159988 0.384227 7.91079 37.8223 3.5521 0.360212 0.0290171 0.0210124 0.0800472
34590.20 1632.19 99.941148 45.0265 0.201118 4.45262 0.161276 0.384226 7.90962 37.8223 3.55209 0.360212 0.0290171 0.0210124 0.0800471
34296.10 1631.89 99.941285 45.0264 0.201118 4.45261 0.162647 0.384226 7.90838 37.8222 3.55209 0.360212 0.029017 0.0210123 0.080047
34001.90 1631.58 99.941429 45.0264 0.201118 4.45261 0.164084 0.384225 7.90707 37.8222 3.55208 0.360211 0.029017 0.0210123 0.0800469
33707.80 1631.28 99.941577 45.0263 0.201118 4.4526 0.165557 0.384224 7.90574 37.8221 3.55208 0.36021 0.029017 0.0210123 0.0800468
33413.80 1630.97 99.941727 45.0262 0.201117 4.45259 0.167064 0.384224 7.90437 37.822 3.55207 0.36021 0.0290169 0.0210122 0.0800466
33119.70 1630.67 99.941882 45.0262 0.201117 4.45259 0.168612 0.384223 7.90296 37.822 3.55206 0.360209 0.0290169 0.0210122 0.0800465
32825.60 1630.37 99.942041 45.0261 0.201117 4.45258 0.170199 0.384223 7.90152 37.8219 3.55206 0.360209 0.0290168 0.0210122 0.0800464
32531.60 1630.06 99.942204 45.026 0.201116 4.45257 0.171823 0.384222 7.90005 37.8219 3.55205 0.360208 0.0290168 0.0210121 0.0800463
32237.60 1629.76 99.942371 45.0259 0.201116 4.45257 0.173493 0.384221 7.89853 37.8218 3.55205 0.360208 0.0290167 0.0210121 0.0800461
31943.60 1629.45 99.942543 45.0259 0.201116 4.45256 0.175205 0.384221 7.89698 37.8217 3.55204 0.360207 0.0290167 0.0210121 0.080046
31649.60 1629.15 99.942719 45.0258 0.201115 4.45255 0.176966 0.38422 7.89538 37.8217 3.55203 0.360206 0.0290166 0.021012 0.0800458
31355.60 1628.85 99.942900 45.0257 0.201115 4.45254 0.178776 0.384219 7.89374 37.8216 3.55203 0.360206 0.0290166 0.021012 0.0800457
31061.70 1628.54 99.943086 45.0256 0.201114 4.45253 0.180633 0.384219 7.89205 37.8215 3.55202 0.360205 0.0290165 0.021012 0.0800456
30767.80 1628.24 99.943278 45.0255 0.201114 4.45253 0.182546 0.384218 7.89031 37.8215 3.55201 0.360204 0.0290165 0.0210119 0.0800454
30473.90 1627.93 99.943475 45.0255 0.201114 4.45252 0.184513 0.384217 7.88853 37.8214 3.55201 0.360204 0.0290164 0.0210119 0.0800452
30180.00 1627.63 99.943678 45.0254 0.201113 4.45251 0.186542 0.384216 7.88668 37.8213 3.552 0.360203 0.0290163 0.0210118 0.0800451
29886.10 1627.33 99.943888 45.0253 0.201113 4.4525 0.188632 0.384216 7.88479 37.8212 3.55199 0.360202 0.0290163 0.0210118 0.0800449
29592.20 1627.02 99.944103 45.0252 0.201112 4.45249 0.190786 0.384215 7.88283 37.8211 3.55199 0.360201 0.0290162 0.0210117 0.0800447
29298.40 1626.72 99.944326 45.0251 0.201112 4.45248 0.19301 0.384214 7.88081 37.8211 3.55198 0.360201 0.0290162 0.0210117 0.0800446
29004.50 1626.41 99.944556 45.025 0.201112 4.45247 0.195305 0.384213 7.87873 37.821 3.55197 0.3602 0.0290161 0.0210116 0.0800444
28710.70 1626.11 99.944794 45.0249 0.201111 4.45246 0.19768 0.384212 7.87657 37.8209 3.55196 0.360199 0.029016 0.0210116 0.0800442
28416.90 1625.81 99.945040 45.0247 0.201111 4.45245 0.200137 0.384211 7.87434 37.8208 3.55195 0.360198 0.0290159 0.0210115 0.080044
28123.10 1625.50 99.945294 45.0246 0.20111 4.45244 0.202677 0.38421 7.87204 37.8207 3.55194 0.360197 0.0290159 0.0210115 0.0800438
27829.40 1625.20 99.945558 45.0245 0.201109 4.45242 0.205312 0.384209 7.86964 37.8206 3.55193 0.360196 0.0290158 0.0210114 0.0800436
27535.60 1624.90 99.945832 45.0244 0.201109 4.45241 0.208047 0.384208 7.86716 37.8205 3.55192 0.360195 0.0290157 0.0210114 0.0800434
27241.90 1624.59 99.946116 45.0243 0.201108 4.4524 0.210883 0.384207 7.86459 37.8204 3.55191 0.360194 0.0290156 0.0210113 0.0800431
26948.20 1624.29 99.946412 45.0241 0.201108 4.45239 0.213835 0.384206 7.86191 37.8203 3.5519 0.360193 0.0290155 0.0210113 0.0800429
26654.50 1623.99 99.946719 45.024 0.201107 4.45237 0.216908 0.384205 7.85912 37.8202 3.55189 0.360192 0.0290155 0.0210112 0.0800426
26360.80 1623.68 99.947040 45.0238 0.201107 4.45236 0.220106 0.384203 7.85621 37.82 3.55188 0.360191 0.0290154 0.0210111 0.0800424
26067.20 1623.38 99.947374 45.0237 0.201106 4.45234 0.223448 0.384202 7.85318 37.8199 3.55187 0.36019 0.0290153 0.0210111 0.0800421
25773.50 1623.08 99.947724 45.0235 0.201105 4.45233 0.226941 0.384201 7.85001 37.8198 3.55186 0.360188 0.0290152 0.021011 0.0800418
25479.90 1622.77 99.948090 45.0234 0.201104 4.45231 0.230591 0.384199 7.84669 37.8196 3.55184 0.360187 0.0290151 0.0210109 0.0800415
25186.30 1622.47 99.948474 45.0232 0.201104 4.45229 0.234423 0.384198 7.84321 37.8195 3.55183 0.360186 0.0290149 0.0210108 0.0800412
24892.70 1622.17 99.948877 45.023 0.201103 4.45228 0.238448 0.384196 7.83956 37.8193 3.55182 0.360184 0.0290148 0.0210107 0.0800409
24599.10 1621.86 99.949300 45.0228 0.201102 4.45226 0.242677 0.384195 7.83572 37.8192 3.5518 0.360183 0.0290147 0.0210107 0.0800406
24305.60 1621.56 99.949747 45.0226 0.201101 4.45224 0.24714 0.384193 7.83167 37.819 3.55178 0.360181 0.0290146 0.0210106 0.0800402
24012.00 1621.25 99.950219 45.0224 0.2011 4.45222 0.251851 0.384191 7.82739 37.8188 3.55177 0.360179 0.0290144 0.0210105 0.0800398
23718.50 1620.95 99.950719 45.0222 0.201099 4.45219 0.256844 0.384189 7.82286 37.8186 3.55175 0.360178 0.0290143 0.0210104 0.0800394
23425.00 1620.65 99.951250 45.0219 0.201098 4.45217 0.262144 0.384187 7.81805 37.8184 3.55173 0.360176 0.0290141 0.0210102 0.080039
23131.50 1620.34 99.951815 45.0217 0.201097 4.45215 0.267782 0.384185 7.81293 37.8182 3.55171 0.360174 0.029014 0.0210101 0.0800386
22838.00 1620.04 99.952419 45.0214 0.201096 4.45212 0.273807 0.384183 7.80746 37.818 3.55169 0.360171 0.0290138 0.02101 0.0800381
22544.60 1619.74 99.953065 45.0211 0.201094 4.45209 0.28026 0.38418 7.8016 37.8177 3.55167 0.360169 0.0290136 0.0210099 0.0800376
22251.10 1619.44 99.953760 45.0208 0.201093 4.45206 0.287201 0.384178 7.7953 37.8175 3.55164 0.360167 0.0290134 0.0210097 0.080037
21957.70 1619.13 99.954510 45.0205 0.201091 4.45203 0.294683 0.384175 7.78851 37.8172 3.55162 0.360164 0.0290132 0.0210096 0.0800364
21664.30 1618.83 99.955323 45.0201 0.20109 4.45199 0.302803 0.384172 7.78113 37.8169 3.55159 0.360161 0.029013 0.0210094 0.0800358
21370.90 1618.53 99.956210 45.0197 0.201088 4.45195 0.311651 0.384168 7.7731 37.8166 3.55156 0.360158 0.0290127 0.0210092 0.080035
21077.50 1618.22 99.957180 45.0193 0.201086 4.45191 0.321337 0.384165 7.76431 37.8162 3.55152 0.360154 0.0290124 0.021009 0.0800343
20784.20 1617.92 99.958250 45.0188 0.201084 4.45186 0.332022 0.38416 7.75461 37.8158 3.55148 0.36015 0.0290121 0.0210088 0.0800334
20490.80 1617.62 99.959439 45.0183 0.201082 4.45181 0.343889 0.384156 7.74383 37.8153 3.55144 0.360146 0.0290118 0.0210085 0.0800325
20197.50 1617.31 99.960768 45.0177 0.201079 4.45175 0.357156 0.384151 7.73179 37.8148 3.55139 0.360141 0.0290114 0.0210082 0.0800314
19904.20 1617.01 99.962271 45.017 0.201076 4.45168 0.372152 0.384145 7.71817 37.8143 3.55134 0.360136 0.0290109 0.0210079 0.0800302
19610.90 1616.71 99.963985 45.0162 0.201072 4.4516 0.389268 0.384138 7.70263 37.8136 3.55128 0.36013 0.0290104 0.0210076 0.0800288
19317.60 1616.40 99.964901 45.0158 0.201071 4.45156 0.398407 0.384135 7.69434 37.8133 3.55125 0.360126 0.0290102 0.0210074 0.0800281
19024.40 1616.10 99.965014 45.0157 0.20107 4.45156 0.399532 0.384134 7.69331 37.8132 3.55124 0.360126 0.0290101 0.0210073 0.080028
18731.20 1615.80 99.965121 45.0157 0.20107 4.45155 0.400599 0.384134 7.69235 37.8132 3.55124 0.360126 0.0290101 0.0210073 0.0800279
18437.90 1615.50 99.965221 45.0157 0.20107 4.45155 0.401603 0.384134 7.69143 37.8132 3.55124 0.360125 0.0290101 0.0210073 0.0800278
18144.70 1615.19 99.965315 45.0156 0.20107 4.45154 0.402535 0.384133 7.69059 37.8131 3.55123 0.360125 0.0290101 0.0210073 0.0800278
17851.60 1614.89 99.965401 45.0156 0.20107 4.45154 0.403395 0.384133 7.68981 37.8131 3.55123 0.360125 0.02901 0.0210073 0.0800277
17558.40 1614.59 99.965479 45.0155 0.201069 4.45154 0.404174 0.384133 7.6891 37.8131 3.55123 0.360124 0.02901 0.0210073 0.0800276
17265.20 1614.28 99.965548 45.0155 0.201069 4.45153 0.404863 0.384132 7.68847 37.813 3.55122 0.360124 0.02901 0.0210072 0.0800276
16972.10 1613.98 99.965608 45.0155 0.201069 4.45153 0.405457 0.384132 7.68793 37.813 3.55122 0.360124 0.02901 0.0210072 0.0800275
16679.00 1613.68 99.965657 45.0155 0.201069 4.45153 0.405946 0.384132 7.68749 37.813 3.55122 0.360124 0.02901 0.0210072 0.0800275
16385.90 1613.38 99.965694 45.0154 0.201069 4.45153 0.406319 0.384132 7.68715 37.813 3.55122 0.360124 0.02901 0.0210072 0.0800275
16092.80 1613.07 99.965719 45.0154 0.201069 4.45153 0.406566 0.384132 7.68693 37.813 3.55122 0.360123 0.0290099 0.0210072 0.0800274
15799.70 1612.77 99.965730 45.0154 0.201069 4.45153 0.406675 0.384132 7.68683 37.813 3.55122 0.360123 0.0290099 0.0210072 0.0800274
15506.70 1612.47 99.965725 45.0154 0.201069 4.45153 0.406632 0.384132 7.68687 37.813 3.55122 0.360123 0.0290099 0.0210072 0.0800274
15213.70 1612.16 99.965704 45.0154 0.201069 4.45153 0.406423 0.384132 7.68706 37.813 3.55122 0.360124 0.0290099 0.0210072 0.0800274
14920.70 1611.86 99.965665 45.0155 0.201069 4.45153 0.406029 0.384132 7.68742 37.813 3.55122 0.360124 0.02901 0.0210072 0.0800275
14627.70 1611.56 99.965605 45.0155 0.201069 4.45153 0.405433 0.384132 7.68796 37.813 3.55122 0.360124 0.02901 0.0210072 0.0800275
14334.70 1611.26 99.965523 45.0155 0.201069 4.45153 0.404612 0.384132 7.6887 37.813 3.55122 0.360124 0.02901 0.0210072 0.0800276
14041.70 1610.95 99.965416 45.0156 0.20107 4.45154 0.403546 0.384133 7.68967 37.8131 3.55123 0.360125 0.02901 0.0210073 0.0800277
13748.80 1610.65 99.965282 45.0156 0.20107 4.45155 0.402205 0.384133 7.69089 37.8131 3.55123 0.360125 0.0290101 0.0210073 0.0800278
13455.90 1610.35 99.965117 45.0157 0.20107 4.45155 0.400561 0.384134 7.69238 37.8132 3.55124 0.360126 0.0290101 0.0210073 0.0800279
13162.90 1610.05 99.964919 45.0158 0.201071 4.45156 0.398584 0.384135 7.69418 37.8133 3.55125 0.360126 0.0290102 0.0210074 0.0800281
12870.10 1609.74 99.964685 45.0159 0.201071 4.45157 0.396244 0.384136 7.6963 37.8134 3.55125 0.360127 0.0290102 0.0210074 0.0800283
12577.20 1609.44 99.964410 45.016 0.201072 4.45158 0.3935 0.384137 7.69879 37.8135 3.55126 0.360128 0.0290103 0.0210075 0.0800285
12284.30 1609.14 99.964091 45.0162 0.201072 4.4516 0.39032 0.384138 7.70168 37.8136 3.55128 0.360129 0.0290104 0.0210075 0.0800287
11991.50 1608.84 99.963726 45.0163 0.201073 4.45161 0.386674 0.384139 7.70499 37.8137 3.55129 0.360131 0.0290105 0.0210076 0.080029
11698.70 1608.53 99.963312 45.0165 0.201074 4.45163 0.382545 0.384141 7.70874 37.8139 3.5513 0.360132 0.0290106 0.0210077 0.0800294
11405.90 1608.23 99.962848 45.0167 0.201075 4.45165 0.37791 0.384143 7.71294 37.814 3.55132 0.360134 0.0290108 0.0210078 0.0800297
11113.10 1607.93 99.962334 45.017 0.201076 4.45168 0.372788 0.384145 7.71759 37.8142 3.55134 0.360136 0.0290109 0.0210079 0.0800301
10820.30 1607.63 99.961777 45.0172 0.201077 4.4517 0.367224 0.384147 7.72265 37.8145 3.55136 0.360138 0.0290111 0.021008 0.0800306
10527.50 1607.32 99.961185 45.0175 0.201078 4.45173 0.361317 0.384149 7.72801 37.8147 3.55138 0.36014 0.0290113 0.0210082 0.0800311
10234.80 1607.02 99.960572 45.0177 0.201079 4.45176 0.355198 0.384151 7.73356 37.8149 3.5514 0.360142 0.0290114 0.0210083 0.0800316
9942.09 1606.72 99.959958 45.018 0.201081 4.45178 0.349069 0.384154 7.73913 37.8151 3.55142 0.360144 0.0290116 0.0210084 0.080032
9649.39 1606.42 99.959367 45.0183 0.201082 4.45181 0.34317 0.384156 7.74448 37.8154 3.55144 0.360146 0.0290118 0.0210085 0.0800325
9356.70 1606.11 99.958825 45.0185 0.201083 4.45183 0.337761 0.384158 7.74939 37.8156 3.55146 0.360148 0.0290119 0.0210086 0.080033
9064.04 1605.81 99.958356 45.0187 0.201084 4.45185 0.333076 0.38416 7.75365 37.8157 3.55148 0.36015 0.0290121 0.0210087 0.0800333
8771.39 1605.51 99.958056 45.0189 0.201084 4.45187 0.33008 0.384161 7.75637 37.8159 3.55149 0.360151 0.0290122 0.0210088 0.0800336
8478.75 1605.21 99.957841 45.019 0.201085 4.45188 0.327936 0.384162 7.75832 37.8159 3.5515 0.360152 0.0290122 0.0210089 0.0800337
8186.14 1604.91 99.957639 45.0191 0.201085 4.45189 0.325922 0.384163 7.76014 37.816 3.5515 0.360153 0.0290123 0.0210089 0.0800339
7893.54 1604.60 99.957457 45.0192 0.201086 4.45189 0.324099 0.384163 7.7618 37.8161 3.55151 0.360153 0.0290123 0.0210089 0.080034
7600.96 1604.30 99.957300 45.0192 0.201086 4.4519 0.322536 0.384164 7.76322 37.8161 3.55152 0.360154 0.0290124 0.021009 0.0800342
7308.40 1604.00 99.957176 45.0193 0.201086 4.45191 0.321295 0.384165 7.76434 37.8162 3.55152 0.360154 0.0290124 0.021009 0.0800343
7015.85 1603.70 99.957090 45.0193 0.201086 4.45191 0.320445 0.384165 7.76512 37.8162 3.55152 0.360155 0.0290124 0.021009 0.0800343
6723.33 1603.40 99.957051 45.0193 0.201086 4.45191 0.320049 0.384165 7.76548 37.8162 3.55153 0.360155 0.0290125 0.021009 0.0800344
6430.81 1603.09 99.957069 45.0193 0.201086 4.45191 0.32023 0.384165 7.76531 37.8162 3.55152 0.360155 0.0290125 0.021009 0.0800344
6138.32 1602.79 99.957696 45.019 0.201085 4.45188 0.326491 0.384163 7.75963 37.816 3.5515 0.360152 0.0290123 0.0210089 0.0800339
5845.85 1602.49 99.958340 45.0188 0.201084 4.45185 0.332917 0.38416 7.75379 37.8158 3.55148 0.36015 0.0290121 0.0210088 0.0800333
5553.39 1602.19 99.959001 45.0185 0.201082 4.45183 0.339515 0.384158 7.7478 37.8155 3.55146 0.360148 0.0290119 0.0210086 0.0800328
5260.95 1601.88 99.959678 45.0182 0.201081 4.45179 0.346274 0.384155 7.74167 37.8152 3.55143 0.360145 0.0290117 0.0210085 0.0800323
4968.52 1601.58 99.960375 45.0178 0.20108 4.45176 0.353227 0.384152 7.73535 37.815 3.55141 0.360143 0.0290115 0.0210083 0.0800317
4676.12 1601.28 99.961090 45.0175 0.201078 4.45173 0.360365 0.384149 7.72887 37.8147 3.55138 0.36014 0.0290113 0.0210082 0.0800311
4383.73 1600.98 99.961824 45.0172 0.201077 4.4517 0.367692 0.384147 7.72222 37.8144 3.55136 0.360138 0.0290111 0.021008 0.0800306
4091.36 1600.68 99.962578 45.0168 0.201075 4.45167 0.375215 0.384144 7.71539 37.8142 3.55133 0.360135 0.0290109 0.0210079 0.0800299
3799.00 1600.38 99.963351 45.0165 0.201074 4.45163 0.382938 0.384141 7.70838 37.8139 3.5513 0.360132 0.0290106 0.0210077 0.0800293
3506.67 1600.07 99.964144 45.0161 0.201072 4.4516 0.390852 0.384138 7.7012 37.8136 3.55127 0.360129 0.0290104 0.0210075 0.0800287
3214.35 1599.77 99.964960 45.0158 0.20107 4.45156 0.398991 0.384135 7.69381 37.8132 3.55124 0.360126 0.0290102 0.0210074 0.080028
2922.05 1599.47 99.965797 45.0154 0.201069 4.45152 0.407347 0.384131 7.68622 37.8129 3.55121 0.360123 0.0290099 0.0210072 0.0800274
2629.76 1599.17 99.966656 45.015 0.201067 4.45148 0.415924 0.384128 7.67843 37.8126 3.55118 0.36012 0.0290097 0.021007 0.0800267
2337.50 1598.87 99.967539 45.0146 0.201065 4.45144 0.424729 0.384125 7.67044 37.8123 3.55115 0.360117 0.0290094 0.0210068 0.080026
2045.25 1598.56 99.968443 45.0142 0.201063 4.4514 0.433751 0.384121 7.66225 37.8119 3.55112 0.360114 0.0290092 0.0210066 0.0800253
1753.02 1598.26 99.969372 45.0138 0.201062 4.45136 0.443028 0.384118 7.65382 37.8116 3.55109 0.36011 0.0290089 0.0210064 0.0800245
1460.80 1597.96 99.970326 45.0134 0.20106 4.45132 0.452551 0.384114 7.64518 37.8112 3.55105 0.360107 0.0290086 0.0210062 0.0800237
1168.61 1597.66 99.971306 45.0129 0.201058 4.45128 0.462323 0.38411 7.63631 37.8108 3.55102 0.360103 0.0290083 0.021006 0.080023