Title: Allan et al. 1989 (see Ghiorso 1997)

Liquid Composition:
Pressure Temperature mass SiO2 TiO2 Al2O3 Fe2O3 Cr2O3 FeO MgO CaO Na2O K2O P2O5 H2O 
99995.30 2092.48 7.125968 56.8979 2.2086 0.506415 0.00106059 1.26933e-05 0.00621868 0.194014 5.40259 31.508 0.420995 0.0474827 2.80664
99697.60 2091.97 7.171368 56.9793 2.25581 0.505385 0.00112298 1.34628e-05 0.00662908 0.19729 5.45711 31.3422 0.41833 0.0479451 2.78887
99399.90 2091.45 7.217168 57.0601 2.30398 0.504432 0.00118837 1.42793e-05 0.00706269 0.200587 5.51181 31.1756 0.415676 0.0484134 2.77117
99102.20 2090.94 7.264278 57.14 2.35319 0.503489 0.00125735 1.51451e-05 0.00752331 0.203981 5.56804 31.0075 0.41298 0.0488954 2.7532
98804.60 2090.43 7.312258 57.2191 2.40342 0.502592 0.00132982 1.60633e-05 0.00801089 0.207435 5.62513 30.8382 0.41027 0.0493875 2.73513
98506.90 2089.91 7.360737 57.2974 2.45472 0.501776 0.00140572 1.70381e-05 0.00852566 0.210917 5.68249 30.6681 0.407568 0.0498864 2.71712
98209.30 2089.40 7.410584 57.3748 2.50713 0.500976 0.00148567 1.80719e-05 0.00907171 0.2145 5.74145 30.4965 0.404826 0.0503998 2.69884
97911.70 2088.88 7.460961 57.4514 2.56064 0.500259 0.0015693 1.91691e-05 0.00964758 0.218111 5.8007 30.324 0.402093 0.0509205 2.68062
97614.10 2088.37 7.512792 57.5269 2.61536 0.49956 0.00165737 2.03333e-05 0.0102582 0.22183 5.86165 30.1499 0.399319 0.0514567 2.66213
97316.50 2087.86 7.565665 57.6014 2.67129 0.498915 0.00174975 2.15692e-05 0.0109037 0.225621 5.92365 29.9744 0.396528 0.0520048 2.64352
97018.90 2087.34 7.619161 57.675 2.72843 0.498357 0.00184629 2.28814e-05 0.0115838 0.229444 5.98601 29.7981 0.393744 0.052561 2.62496
96721.40 2086.83 7.674191 57.7473 2.78688 0.497823 0.0019478 2.42739e-05 0.0123039 0.233382 6.05017 29.62 0.390921 0.0531339 2.60614
96423.80 2086.31 7.729942 57.8186 2.84663 0.49738 0.00205383 2.57534e-05 0.0130623 0.237357 6.11479 29.4409 0.388101 0.0537157 2.58734
96126.30 2085.80 7.787309 57.8886 2.90779 0.496962 0.00216524 2.73241e-05 0.0138649 0.241453 6.18129 29.26 0.385242 0.0543151 2.56828
95828.80 2085.28 7.845447 57.9575 2.97032 0.496639 0.00228149 2.89928e-05 0.0147093 0.245588 6.24829 29.0781 0.382387 0.054924 2.54925
95531.30 2084.77 7.905318 58.0249 3.03438 0.496345 0.00240359 3.07658e-05 0.0156026 0.249852 6.3173 28.8942 0.379491 0.0555518 2.52994
95233.80 2084.25 7.966049 58.091 3.09992 0.496148 0.00253091 3.26501e-05 0.0165418 0.25416 6.38689 28.7093 0.376598 0.05619 2.51065
94936.30 2083.74 8.028614 58.1556 3.1671 0.495983 0.00266455 3.46532e-05 0.0175348 0.258603 6.45859 28.5223 0.373663 0.0568482 2.49109
94638.90 2083.22 8.092108 58.2188 3.23584 0.495919 0.00280375 3.67822e-05 0.0185778 0.263094 6.53093 28.3342 0.370732 0.0575173 2.47154
94341.50 2082.71 8.157550 58.2802 3.30635 0.495889 0.00294975 3.90466e-05 0.0196798 0.267727 6.6055 28.144 0.367757 0.0582077 2.45172
94044.10 2082.19 8.224060 58.3402 3.37858 0.495963 0.00310178 4.14555e-05 0.020837 0.272416 6.68083 27.9525 0.364783 0.0589105 2.43189
93746.70 2081.68 8.292648 58.3982 3.45274 0.496075 0.00326114 4.4019e-05 0.022059 0.277255 6.75854 27.7587 0.361766 0.0596359 2.41177
93449.30 2081.17 8.362912 58.4544 3.52882 0.496259 0.00342755 4.67481e-05 0.0233454 0.282204 6.83791 27.563 0.358727 0.0603799 2.39151
93151.90 2080.65 8.434439 58.5088 3.60685 0.496551 0.00360067 4.9654e-05 0.0246949 0.287218 6.91821 27.366 0.355685 0.0611379 2.37123
92854.60 2080.14 8.508241 58.561 3.68703 0.496885 0.00378187 5.27488e-05 0.0261182 0.292394 7.00107 27.1665 0.352599 0.0619207 2.35066
92557.20 2079.62 8.583494 58.6113 3.76935 0.497329 0.00397032 5.60477e-05 0.0276112 0.297646 7.08505 26.9654 0.349508 0.0627193 2.33005
92259.90 2079.10 8.660704 58.6594 3.85394 0.497852 0.00416675 5.95634e-05 0.0291802 0.303021 7.17093 26.7622 0.346392 0.0635391 2.30928
91962.60 2078.59 8.740504 58.7049 3.94104 0.498419 0.00437225 6.33142e-05 0.0308342 0.30858 7.25969 26.5563 0.34323 0.0643868 2.2882
91665.30 2078.07 8.821996 58.7481 4.03056 0.499101 0.00458567 6.7316e-05 0.0325672 0.314224 7.34975 26.3487 0.340059 0.0652525 2.26706
91368.00 2077.56 8.906306 58.7885 4.12286 0.49983 0.00480881 7.15897e-05 0.0343933 0.320064 7.44291 26.138 0.33684 0.0661483 2.2456
91070.80 2077.04 8.992493 58.8263 4.21781 0.500675 0.00504031 7.61526e-05 0.0363047 0.325998 7.53752 25.9255 0.333612 0.0670636 2.22408
90773.50 2076.53 9.081800 58.8609 4.31586 0.501568 0.0052823 8.10331e-05 0.0383187 0.332147 7.63551 25.7097 0.330331 0.0680121 2.20221
90476.30 2076.01 9.173245 58.8928 4.41686 0.502579 0.0055332 8.62501e-05 0.040426 0.338402 7.73519 25.4919 0.327038 0.0689823 2.18025
90179.10 2075.50 9.268085 58.921 4.5213 0.503638 0.00579522 9.18362e-05 0.0426444 0.344886 7.83849 25.2705 0.323691 0.0699882 2.15794
89881.90 2074.98 9.365414 58.9461 4.62908 0.504817 0.00606682 9.78176e-05 0.0449654 0.351495 7.94378 25.0467 0.320328 0.0710188 2.13552
89584.70 2074.47 9.466513 58.9671 4.74072 0.506044 0.0063503 0.000104233 0.0474081 0.358353 8.05304 24.8192 0.316907 0.0720886 2.11271
89287.60 2073.95 9.570432 58.9845 4.8561 0.507389 0.00664387 0.00011111 0.0499617 0.365349 8.16455 24.5889 0.313465 0.0731858 2.08977
88990.40 2073.44 9.678618 58.9974 4.9759 0.508781 0.00695021 0.000118503 0.0526492 0.372621 8.28048 24.3544 0.309962 0.0743267 2.06641
88693.30 2072.92 9.790079 59.0061 5.09995 0.510291 0.00726728 0.000126445 0.055458 0.380053 8.39906 24.1169 0.306433 0.0754987 2.04288
88396.20 2072.40 9.905710 59.0099 5.22881 0.511881 0.00759664 0.000134992 0.058403 0.387722 8.52149 23.8754 0.302856 0.0767115 2.01904
88099.10 2071.89 10.026439 59.0082 5.36305 0.513512 0.00793994 0.000144208 0.0615 0.395708 8.64905 23.629 0.299209 0.077975 1.99473
87802.00 2071.37 10.151394 59.0013 5.50263 0.515256 0.0082951 0.000154147 0.0647369 0.403898 8.78006 23.3787 0.295526 0.0792774 1.97017
87505.00 2070.86 10.282165 58.9878 5.64843 0.517033 0.00866495 0.000164892 0.0681391 0.412438 8.91677 23.123 0.291767 0.0806365 1.94512
87207.90 2070.34 10.418024 58.9683 5.80056 0.518917 0.00904754 0.000176517 0.0716959 0.42122 9.05765 22.8627 0.287962 0.0820415 1.91975
86910.90 2069.82 10.559998 58.9416 5.95972 0.520863 0.00944431 0.000189119 0.0754224 0.430328 9.204 22.5969 0.284091 0.0835028 1.89394
86613.90 2069.31 10.709433 58.9067 6.12697 0.522826 0.00985735 0.000202822 0.0793407 0.439862 9.35743 22.3242 0.280127 0.0850341 1.86751
86316.80 2068.79 10.865431 58.8647 6.3012 0.524873 0.0102846 0.000217701 0.0834378 0.449709 9.51587 22.0463 0.276105 0.0866196 1.8407
86019.90 2068.28 11.003879 58.9163 6.35321 0.526679 0.0107554 0.000230065 0.0877823 0.459577 9.62794 21.8395 0.272631 0.0877688 1.81754
85722.90 2067.76 11.142899 58.9709 6.40047 0.528693 0.0112427 0.000242973 0.0923045 0.469524 9.73807 21.6356 0.26923 0.0889162 1.79487
85425.90 2067.24 11.283069 59.0277 6.44329 0.530883 0.0117484 0.000256448 0.0970208 0.479614 9.84721 21.4337 0.265885 0.0900696 1.77257
85129.00 2066.73 11.424990 59.0864 6.48191 0.533216 0.0122744 0.000270513 0.10195 0.489916 9.9563 21.2334 0.262582 0.0912373 1.75055
84832.10 2066.21 11.567119 59.1481 6.51571 0.53578 0.0128177 0.000285153 0.107068 0.500267 10.063 21.0362 0.259356 0.0924012 1.72904
84535.20 2065.70 11.710905 59.2117 6.54531 0.5385 0.0133825 0.000300414 0.112413 0.510822 10.1696 20.8405 0.256171 0.0935793 1.70781
84238.30 2065.18 11.854769 59.2783 6.57021 0.541462 0.0139651 0.000316278 0.117956 0.521411 10.2736 20.6479 0.253063 0.0947532 1.68708
83941.40 2064.66 11.999429 59.3473 6.59078 0.544633 0.014568 0.000332775 0.123718 0.53211 10.3762 20.4577 0.250012 0.0959319 1.66675
83644.50 2064.15 12.145623 59.4183 6.60732 0.547977 0.0151936 0.000349938 0.129724 0.543 10.4784 20.2689 0.247003 0.097125 1.64668
83347.70 2063.63 12.291749 59.492 6.61953 0.551578 0.0158377 0.000367744 0.13594 0.5539 10.578 20.0833 0.244066 0.0983132 1.62711
83050.90 2063.11 12.438634 59.5681 6.62777 0.555401 0.0165031 0.000386234 0.142391 0.564897 10.676 19.9 0.241184 0.0995068 1.60789
82754.10 2062.60 12.587055 59.6459 6.63231 0.559412 0.0171925 0.000405444 0.149103 0.576077 10.7736 19.718 0.23834 0.100715 1.58893
82457.30 2062.08 12.735512 59.7262 6.63304 0.563694 0.0179014 0.000425361 0.15604 0.58726 10.8687 19.5388 0.235562 0.101921 1.57041
82160.50 2061.56 12.884804 59.8086 6.63025 0.56821 0.0186326 0.000446023 0.163228 0.598533 10.9623 19.3617 0.232832 0.103132 1.55222
81863.70 2061.05 13.035739 59.8924 6.62418 0.572925 0.0193891 0.000467471 0.170697 0.609987 11.0554 19.1858 0.230137 0.10436 1.53424
81567.00 2060.53 13.186785 59.9784 6.61483 0.577921 0.0201656 0.000489686 0.178401 0.621433 11.1461 19.0125 0.2275 0.105585 1.51667
81270.20 2060.01 13.338894 60.0662 6.60245 0.583162 0.0209656 0.000512727 0.186375 0.632972 11.2354 18.8408 0.224906 0.106818 1.49937
80973.50 2059.50 13.492766 60.1551 6.58722 0.588613 0.0217919 0.000536623 0.194646 0.64469 11.3244 18.6703 0.222341 0.108069 1.48228
80676.80 2058.98 13.647019 60.2459 6.56923 0.594354 0.0226392 0.000561375 0.203169 0.656403 11.4111 18.502 0.219828 0.109318 1.46552
80380.10 2058.46 13.802493 60.338 6.54867 0.60035 0.0235107 0.000587031 0.211975 0.668208 11.4966 18.3351 0.217352 0.110578 1.44901
80083.50 2057.95 13.959968 60.4311 6.52566 0.606565 0.0244097 0.000613628 0.221097 0.680198 11.5818 18.1692 0.2149 0.111856 1.43267
79786.80 2057.43 14.118142 60.5257 6.50036 0.613081 0.0253306 0.000641184 0.230489 0.692192 11.6649 18.0051 0.212493 0.113135 1.41662
79490.20 2056.91 14.277732 60.6213 6.47289 0.619861 0.0262763 0.000669731 0.240177 0.704279 11.7469 17.8423 0.210117 0.114425 1.40078
79193.60 2056.39 14.438901 60.7179 6.44339 0.62691 0.0272475 0.000699313 0.250171 0.716465 11.8279 17.6807 0.207772 0.115726 1.38515
78897.00 2055.88 14.602516 60.815 6.4119 0.634192 0.0282481 0.000729985 0.260511 0.728857 11.9088 17.5196 0.205444 0.11705 1.36963
78600.40 2055.36 14.767140 60.9133 6.37864 0.641789 0.0292712 0.000761749 0.271135 0.741255 11.9878 17.3601 0.203154 0.118376 1.35436
78303.80 2054.84 14.933642 61.0123 6.34368 0.649664 0.0303205 0.000794664 0.282083 0.753764 12.066 17.2015 0.200889 0.119715 1.33926
78007.20 2054.32 15.102127 61.112 6.3071 0.657823 0.0313965 0.000828769 0.293359 0.766387 12.1432 17.0439 0.198648 0.121068 1.32432
77710.70 2053.81 15.273415 61.2118 6.26892 0.666228 0.032503 0.000864116 0.305003 0.779227 12.2207 16.8865 0.19642 0.122445 1.30946
77414.20 2053.29 15.446123 61.3124 6.22939 0.674962 0.0336326 0.000900722 0.316949 0.792086 12.2963 16.7305 0.194223 0.123827 1.29482
77117.70 2052.77 15.621141 61.4134 6.18851 0.683991 0.0347896 0.000938652 0.329241 0.805072 12.3713 16.5752 0.192047 0.125223 1.28032
76821.20 2052.25 15.798585 61.5148 6.14636 0.693318 0.0359742 0.000977954 0.341883 0.818188 12.4455 16.4205 0.18989 0.126636 1.26594
76524.70 2051.74 15.979372 61.6161 6.10288 0.70291 0.0371913 0.0010187 0.354925 0.831551 12.5201 16.2659 0.187742 0.128076 1.25161
76228.30 2051.22 16.161949 61.7179 6.0584 0.712845 0.0384314 0.00106088 0.368282 0.844939 12.593 16.1125 0.185621 0.129521 1.23747
75931.80 2050.70 16.347385 61.8199 6.01283 0.723094 0.0397003 0.00110461 0.382011 0.858481 12.6654 15.9595 0.183516 0.130985 1.22344
75635.40 2050.18 16.535652 61.922 5.96627 0.733656 0.0409972 0.0011499 0.396107 0.872167 12.7373 15.807 0.181426 0.132466 1.20951
75339.00 2049.67 16.727782 62.0238 5.91861 0.7445 0.042328 0.00119685 0.41063 0.886123 12.8095 15.6544 0.179342 0.133976 1.19562
75042.60 2049.15 16.922259 62.1258 5.87018 0.755708 0.0436826 0.00124548 0.425488 0.90013 12.8803 15.5028 0.177281 0.135495 1.18188
74746.20 2048.63 17.120039 62.2278 5.8209 0.767245 0.0450662 0.00129588 0.440734 0.914306 12.9506 15.3515 0.175233 0.137033 1.16822
74449.80 2048.11 17.321260 62.3297 5.77081 0.779118 0.046479 0.00134809 0.456374 0.928655 13.0205 15.2005 0.173198 0.138591 1.15465
74153.50 2047.59 17.525982 62.4315 5.71998 0.791326 0.0479205 0.00140218 0.472406 0.943179 13.09 15.0498 0.171174 0.140169 1.14116
73857.10 2047.08 17.735388 62.5327 5.66824 0.803843 0.0493981 0.00145828 0.488903 0.958016 13.16 14.8988 0.169153 0.14178 1.12769
73560.80 2046.56 17.947730 62.6339 5.616 0.816744 0.0508989 0.00151637 0.505748 0.972922 13.2287 14.7486 0.167152 0.143401 1.11435
73264.50 2046.04 18.122571 62.7411 5.57078 0.835836 0.0521401 0.0015739 0.520029 0.980692 13.2611 14.6226 0.165539 0.144929 1.1036
72968.30 2045.52 18.228999 62.8583 5.53831 0.865892 0.0528946 0.0016287 0.529379 0.976026 13.2323 14.5373 0.164573 0.146281 1.09715
72672.00 2045.00 18.337994 62.9747 5.50543 0.897208 0.0536512 0.00168531 0.538814 0.971509 13.2043 14.4509 0.163595 0.147651 1.09063
72375.70 2044.49 18.449664 63.0898 5.47216 0.929897 0.0544099 0.00174374 0.548332 0.967121 13.1774 14.3634 0.162605 0.14905 1.08403
72079.50 2043.97 18.563982 63.2042 5.4385 0.963803 0.0551702 0.00180407 0.557934 0.962922 13.1513 14.275 0.161603 0.150457 1.07736
71783.30 2043.45 18.681133 63.3176 5.40444 0.999057 0.0559326 0.00186636 0.567625 0.958888 13.1261 14.1854 0.16059 0.151882 1.0706
71487.10 2042.93 18.801227 63.4299 5.36996 1.03569 0.0566974 0.00193068 0.577409 0.955024 13.1019 14.0948 0.159564 0.153328 1.06376
71190.90 2042.41 18.924376 63.5411 5.33506 1.07374 0.0574648 0.00199709 0.587289 0.951334 13.0788 14.0031 0.158526 0.154792 1.05684
70894.70 2041.89 19.050698 63.6512 5.29973 1.11323 0.058235 0.00206567 0.597268 0.947822 13.0566 13.9103 0.157475 0.156277 1.04983
70598.60 2041.37 19.180270 63.7601 5.26396 1.15418 0.0590078 0.00213646 0.607346 0.944496 13.0356 13.8163 0.156411 0.157781 1.04274
70302.40 2040.86 19.313386 63.8677 5.22772 1.19676 0.0597846 0.00220955 0.617536 0.941334 13.0157 13.7211 0.155333 0.159316 1.03555
70006.30 2040.34 19.449937 63.9742 5.19106 1.24075 0.0605642 0.00228504 0.627833 0.938389 12.9968 13.6247 0.154242 0.160861 1.02828
69710.20 2039.82 19.590177 64.0795 5.15393 1.2863 0.0613474 0.002363 0.638245 0.935641 12.979 13.5272 0.153138 0.162428 1.02092
69414.10 2039.30 19.734248 64.1835 5.11634 1.33342 0.0621347 0.0024435 0.648778 0.933093 12.9623 13.4284 0.15202 0.164016 1.01347
69118.00 2038.78 19.882299 64.2862 5.07828 1.38216 0.0629262 0.00252665 0.659435 0.930752 12.9468 13.3284 0.150888 0.165625 1.00592
68822.00 2038.26 20.034430 64.3876 5.03975 1.43251 0.0637219 0.00261249 0.670219 0.928621 12.9324 13.2272 0.149742 0.167256 0.998281
68525.90 2037.74 20.190906 64.4877 5.00073 1.48453 0.0645228 0.00270118 0.681141 0.926704 12.9193 13.1247 0.148582 0.16891 0.990545
68229.90 2037.22 20.351786 64.5863 4.96123 1.53821 0.0653286 0.00279277 0.6922 0.925005 12.9073 13.021 0.147407 0.170586 0.982715
67933.90 2036.70 20.517295 64.6835 4.92124 1.59357 0.0661398 0.00288736 0.703404 0.92353 12.8965 12.9159 0.146218 0.172286 0.974787
67637.90 2036.19 20.687748 64.7791 4.88072 1.6508 0.0669576 0.00298505 0.714766 0.922266 12.8871 12.8095 0.145013 0.174019 0.966756
67341.90 2035.67 20.863073 64.8735 4.83974 1.7096 0.0677808 0.00308601 0.72628 0.92125 12.8787 12.7019 0.143795 0.175766 0.958632
67046.00 2035.15 21.043527 64.9664 4.79826 1.77012 0.0686102 0.00319026 0.737954 0.920469 12.8716 12.5929 0.142562 0.177536 0.950411
66750.00 2034.63 21.229442 65.0578 4.75627 1.83241 0.0694467 0.00329802 0.749801 0.919927 12.8656 12.4827 0.141313 0.179332 0.942088
66454.10 2034.11 21.420899 65.1477 4.71379 1.89644 0.0702901 0.00340931 0.761821 0.91963 12.8609 12.3711 0.14005 0.181152 0.933668
66158.20 2033.59 21.618184 65.2362 4.6708 1.96223 0.071141 0.00352431 0.774024 0.91958 12.8574 12.2582 0.138772 0.182998 0.925147
65862.30 2033.07 21.821530 65.3231 4.6273 2.0298 0.0719998 0.00364315 0.786417 0.919783 12.8552 12.144 0.137479 0.18487 0.916526
65566.40 2032.55 22.031179 65.4084 4.58329 2.09915 0.072867 0.00376595 0.799007 0.920243 12.8541 12.0284 0.136171 0.186768 0.907804
65270.50 2032.03 22.247384 65.4923 4.53877 2.17028 0.0737428 0.00389286 0.8118 0.920965 12.8542 11.9115 0.134847 0.188693 0.898982
64974.70 2031.51 22.470330 65.5745 4.49376 2.24316 0.0746275 0.00402399 0.824801 0.921953 12.8556 11.7933 0.133509 0.190644 0.890063
64678.90 2030.99 22.700370 65.6553 4.44825 2.31782 0.0755216 0.00415951 0.838022 0.923212 12.8581 11.6738 0.132156 0.192623 0.881043
64383.10 2030.47 22.937794 65.7344 4.40223 2.39426 0.0764256 0.0042996 0.85147 0.924746 12.8618 11.553 0.130789 0.19463 0.871923
64087.30 2029.95 23.182908 65.812 4.3557 2.47247 0.07734 0.0044444 0.865154 0.926562 12.8667 11.4308 0.129406 0.196667 0.862705
63791.50 2029.43 23.436030 65.8881 4.30868 2.55245 0.0782653 0.0045941 0.879082 0.928665 12.8727 11.3074 0.128008 0.198732 0.853387
63495.70 2028.91 23.697496 65.9626 4.26116 2.63418 0.0792018 0.00474886 0.893264 0.931059 12.8798 11.1826 0.126596 0.200827 0.843971
63200.00 2028.39 23.967561 66.0356 4.21317 2.71762 0.0801497 0.00490881 0.907703 0.933752 12.888 11.0566 0.125169 0.202952 0.834461
62904.20 2027.87 24.246786 66.107 4.16467 2.80282 0.0811103 0.00507425 0.92242 0.936749 12.8972 10.9293 0.123728 0.205108 0.824852
62608.50 2027.35 24.535362 66.1769 4.11571 2.8897 0.0820833 0.00524525 0.937415 0.940057 12.9075 10.8007 0.122272 0.207295 0.81515
62312.80 2026.83 24.833795 66.2452 4.06626 2.97827 0.0830696 0.00542208 0.952703 0.943683 12.9187 10.6709 0.120803 0.209514 0.805354
62017.10 2026.31 25.142515 66.3121 4.01635 3.06853 0.0840699 0.00560494 0.968296 0.947634 12.931 10.5399 0.11932 0.211765 0.795465
61721.50 2025.79 25.461858 66.3774 3.966 3.16039 0.0850843 0.00579399 0.984199 0.951916 12.9441 10.4077 0.117823 0.214049 0.785489
61425.80 2025.27 25.792529 66.4413 3.91517 3.25392 0.0861143 0.00598957 1.00044 0.956542 12.9581 10.2743 0.116313 0.216367 0.775418
61130.20 2024.75 26.134793 66.5037 3.86391 3.34902 0.0871597 0.00619178 1.01701 0.961517 12.973 10.1397 0.11479 0.218719 0.765263
60834.50 2024.23 26.489424 66.5647 3.8122 3.44571 0.0882221 0.00640101 1.03395 0.966853 12.9886 10.004 0.113253 0.221107 0.755018
60538.90 2023.71 26.856723 66.6242 3.76008 3.54391 0.0893015 0.00661736 1.05125 0.972558 13.005 9.86718 0.111704 0.22353 0.744692
60243.40 2023.19 27.237265 66.6823 3.70756 3.64357 0.0903985 0.00684107 1.06892 0.978641 13.022 9.72932 0.110143 0.225988 0.734288
59947.80 2022.67 27.484226 66.7536 3.67425 3.71113 0.092068 0.00697298 1.0896 0.987415 13.0243 9.64189 0.109154 0.226899 0.682775
59652.20 2022.15 27.731989 66.8235 3.64143 3.77834 0.0937733 0.00710472 1.11063 0.996437 13.0265 9.55575 0.108178 0.227783 0.630569
59356.70 2021.63 28.006192 66.8899 3.60579 3.85087 0.0954194 0.00725347 1.13156 1.00534 13.0312 9.46219 0.107119 0.228906 0.58451
59061.20 2021.11 28.305944 66.9529 3.56761 3.92827 0.0970163 0.00741836 1.15248 1.0142 13.0381 9.36199 0.105985 0.230244 0.543743
58765.70 2020.59 28.630629 67.0129 3.52716 4.01014 0.098572 0.00759873 1.17345 1.0231 13.0471 9.25582 0.104783 0.231777 0.507564
58470.20 2020.07 28.979925 67.0702 3.48466 4.09611 0.100094 0.00779411 1.19453 1.0321 13.0579 9.14426 0.10352 0.233485 0.475381
58174.70 2019.55 29.309372 67.1014 3.4455 4.1827 0.10193 0.00799146 1.21882 1.04306 13.0726 9.04148 0.102356 0.235378 0.446765
57879.20 2019.03 29.420706 67.005 3.43246 4.2559 0.10561 0.00813296 1.25989 1.06392 13.1007 9.00726 0.101969 0.237533 0.421581
57583.80 2018.51 29.538579 66.9021 3.41876 4.3319 0.109403 0.00828231 1.30229 1.08532 13.1302 8.97132 0.101562 0.239815 0.399053
57288.40 2017.99 29.662846 66.7932 3.40443 4.41058 0.113313 0.00843928 1.34605 1.10726 13.1608 8.93374 0.101137 0.242215 0.378862
56993.00 2017.47 29.793365 66.6786 3.38951 4.49186 0.11734 0.0086037 1.39117 1.12976 13.1924 8.8946 0.100694 0.244726 0.360745
56697.60 2016.94 29.929632 66.5589 3.37408 4.57537 0.12148 0.0087755 1.43762 1.15279 13.2248 8.8541 0.100235 0.247328 0.344513
56402.20 2016.42 30.072392 66.4339 3.35806 4.66154 0.125742 0.00895443 1.48549 1.1764 13.2582 8.81207 0.0997593 0.250039 0.329884
56106.80 2015.90 30.221222 66.3039 3.34152 4.75005 0.130124 0.00914054 1.53475 1.20059 13.2924 8.76867 0.099268 0.252844 0.316732
