Title: Sanloup as cited by Taylor et al. (2014)

Liquid Composition:
Pressure Temperature mass SiO2 TiO2 Al2O3 Fe2O3 Cr2O3 FeO MgO CaO Na2O K2O P2O5 H2O 
99995.30 2064.99 2.883984 54.0223 0.218119 0.0434524 0.102543 0 0.483467 5.9029 2.87421 36.353 0 0 0
99697.60 2064.49 2.891303 54.0464 0.220801 0.0449232 0.10783 0 0.511806 5.93821 2.88309 36.2469 0 0 0
99399.90 2063.98 2.898663 54.0698 0.223479 0.046439 0.113339 0 0.541573 5.9731 2.89165 36.1406 0 0 0
99102.20 2063.47 2.906130 54.0921 0.226166 0.047999 0.119086 0 0.572884 6.00801 2.90018 36.0335 0 0 0
98804.60 2062.96 2.913705 54.1134 0.228863 0.0496036 0.125078 0 0.605797 6.04294 2.90865 35.9257 0 0 0
98506.90 2062.46 2.921465 54.1332 0.231584 0.0512528 0.131337 0 0.640471 6.07837 2.91734 35.8165 0 0 0
98209.30 2061.95 2.929279 54.1521 0.234299 0.0529507 0.137845 0 0.676832 6.11338 2.92573 35.7069 0 0 0
97911.70 2061.44 2.937219 54.1697 0.237024 0.0546965 0.144624 0 0.715031 6.14844 2.93406 35.5964 0 0 0
97614.10 2060.93 2.945291 54.1861 0.239757 0.0564915 0.151681 0 0.755149 6.18356 2.94235 35.4849 0 0 0
97316.50 2060.43 2.953568 54.2007 0.242514 0.0583341 0.159037 0 0.797349 6.21919 2.95086 35.372 0 0 0
97018.90 2059.92 2.961922 54.2143 0.245265 0.0602299 0.166676 0 0.841563 6.25444 2.95906 35.2585 0 0 0
96721.40 2059.41 2.970422 54.2264 0.248024 0.062177 0.174616 0 0.88794 6.28975 2.96721 35.1439 0 0 0
96423.80 2058.90 2.979083 54.2369 0.250792 0.0641775 0.182869 0 0.936607 6.32516 2.97532 35.0282 0 0 0
96126.30 2058.39 2.987902 54.2458 0.253567 0.0662311 0.191439 0 0.987625 6.36064 2.98338 34.9113 0 0 0
95828.80 2057.89 2.996962 54.2527 0.256365 0.0683367 0.200352 0 1.04121 6.39669 2.99165 34.7927 0 0 0
95531.30 2057.38 3.006131 54.2581 0.259157 0.0705003 0.209586 0 1.09728 6.43238 2.99961 34.6734 0 0 0
95233.80 2056.87 3.015484 54.2618 0.261956 0.0727203 0.219164 0 1.15602 6.46819 3.00753 34.5527 0 0 0
94936.30 2056.36 3.025032 54.2635 0.264762 0.0749975 0.229094 0 1.21756 6.50412 3.01539 34.4306 0 0 0
94638.90 2055.85 3.034777 54.2632 0.267576 0.0773319 0.23938 0 1.28198 6.54016 3.02321 34.3071 0 0 0
94341.50 2055.35 3.044807 54.2606 0.270411 0.0797219 0.250052 0 1.34955 6.57682 3.03123 34.1816 0 0 0
94044.10 2054.84 3.054984 54.2562 0.273239 0.0821744 0.26108 0 1.42015 6.61315 3.03895 34.0551 0 0 0
93746.70 2054.33 3.065391 54.2495 0.276074 0.0846868 0.272489 0 1.49402 6.64965 3.04661 33.927 0 0 0
93449.30 2053.82 3.076039 54.2405 0.278915 0.08726 0.284287 0 1.57129 6.6863 3.05423 33.7972 0 0 0
93151.90 2053.31 3.086937 54.2292 0.281763 0.0898944 0.29648 0 1.6521 6.72314 3.06179 33.6657 0 0 0
92854.60 2052.81 3.098170 54.215 0.284633 0.0925861 0.309091 0 1.73672 6.76061 3.06955 33.5318 0 0 0
92557.20 2052.30 3.109605 54.1986 0.287493 0.0953443 0.322092 0 1.82504 6.79782 3.07701 33.3966 0 0 0
92259.90 2051.79 3.121320 54.1795 0.290359 0.0981641 0.335499 0 1.91729 6.83521 3.08441 33.2596 0 0 0
91962.60 2051.28 3.133333 54.1576 0.29323 0.101047 0.349322 0 2.01366 6.87281 3.09175 33.1205 0 0 0
91665.30 2050.77 3.145658 54.1329 0.296107 0.103992 0.363565 0 2.1143 6.91062 3.09904 32.9794 0 0 0
91368.00 2050.26 3.158307 54.1053 0.298989 0.107001 0.37823 0 2.21938 6.94866 3.10626 32.8362 0 0 0
91070.80 2049.75 3.171291 54.0746 0.301875 0.110071 0.393314 0 2.32901 6.98691 3.11343 32.6908 0 0 0
90773.50 2049.25 3.184719 54.0403 0.304782 0.113201 0.408858 0 2.44368 7.02592 3.12079 32.5425 0 0 0
90476.30 2048.74 3.198428 54.0031 0.307677 0.116397 0.424795 0 2.56301 7.06466 3.12783 32.3925 0 0 0
90179.10 2048.23 3.212522 53.9626 0.310575 0.119655 0.441158 0 2.68745 7.10365 3.13481 32.2401 0 0 0
89881.90 2047.72 3.227019 53.9186 0.313476 0.122974 0.457945 0 2.81716 7.1429 3.14172 32.0852 0 0 0
89584.70 2047.21 3.241937 53.8711 0.31638 0.126355 0.475152 0 2.95234 7.18242 3.14856 31.9277 0 0 0
89287.60 2046.70 3.257287 53.8198 0.319285 0.129795 0.492769 0 3.0931 7.22218 3.15533 31.7677 0 0 0
88990.40 2046.19 3.273100 53.7648 0.322192 0.133295 0.510802 0 3.23973 7.26225 3.16204 31.6049 0 0 0
88693.30 2045.68 3.289384 53.7059 0.325099 0.136852 0.529231 0 3.3923 7.30256 3.16866 31.4394 0 0 0
88396.20 2045.18 3.306261 53.6425 0.328023 0.14046 0.548088 0 3.5514 7.34367 3.17546 31.2704 0 0 0
88099.10 2044.67 3.323562 53.5754 0.33093 0.144129 0.567293 0 3.71654 7.38455 3.18194 31.0992 0 0 0
87802.00 2044.16 3.341402 53.5042 0.333835 0.147851 0.586867 0 3.88822 7.42571 3.18833 30.925 0 0 0
87505.00 2043.65 3.359797 53.4288 0.336737 0.151624 0.606788 0 4.06655 7.46714 3.19463 30.7478 0 0 0
87207.90 2043.14 3.378785 53.3489 0.339637 0.155448 0.627054 0 4.25184 7.50887 3.20085 30.5674 0 0 0
86910.90 2042.63 3.398373 53.2646 0.34253 0.159318 0.647631 0 4.44413 7.55086 3.20699 30.384 0 0 0
86613.90 2042.12 3.418595 53.1757 0.345419 0.163234 0.668505 0 4.64363 7.59313 3.21303 30.1974 0 0 0
86316.80 2041.61 3.439484 53.0822 0.348301 0.167192 0.68966 0 4.85058 7.63569 3.21899 30.0074 0 0 0
86019.90 2041.10 3.461039 52.9841 0.351173 0.171188 0.711046 0 5.06489 7.67847 3.22484 29.8143 0 0 0
85722.90 2040.59 3.483312 52.8812 0.354036 0.175221 0.73266 0 5.28693 7.72153 3.2306 29.6178 0 0 0
85425.90 2040.08 3.506322 52.7735 0.356889 0.179288 0.754463 0 5.51674 7.76485 3.23627 29.418 0 0 0
85129.00 2039.57 3.530085 52.6611 0.359727 0.183384 0.776414 0 5.75434 7.80839 3.24183 29.2149 0 0 0
84832.10 2039.06 3.554639 52.5438 0.362551 0.187505 0.798486 0 5.99989 7.85216 3.24729 29.0084 0 0 0
84535.20 2038.55 3.580010 52.4216 0.365359 0.19165 0.820642 0 6.25347 7.89615 3.25265 28.7985 0 0 0
84238.30 2038.04 3.606227 52.2946 0.368149 0.195813 0.842842 0 6.51512 7.94034 3.25791 28.5852 0 0 0
83941.40 2037.53 3.633319 52.1628 0.370919 0.199992 0.865047 0 6.78488 7.98474 3.26307 28.3686 0 0 0
83644.50 2037.02 3.661312 52.0262 0.373667 0.204182 0.887214 0 7.06274 8.02932 3.26813 28.1486 0 0 0
83347.70 2036.52 3.690360 51.8842 0.376406 0.208367 0.909329 0 7.34922 8.07456 3.27332 27.9246 0 0 0
83050.90 2036.01 3.720233 51.7382 0.379103 0.212565 0.931277 0 7.6431 8.11943 3.27817 27.6982 0 0 0
82754.10 2035.50 3.751091 51.5875 0.381773 0.216762 0.953052 0 7.94494 8.16444 3.28292 27.4686 0 0 0
82457.30 2034.99 3.782963 51.4324 0.384412 0.220954 0.974607 0 8.25462 8.20958 3.28759 27.2358 0 0 0
82160.50 2034.48 3.815875 51.2729 0.38702 0.225137 0.995897 0 8.572 8.25482 3.29216 27.0001 0 0 0
81863.70 2033.97 3.849856 51.1092 0.389593 0.229308 1.01687 0 8.89693 8.30015 3.29664 26.7613 0 0 0
81567.00 2033.46 3.884916 50.9414 0.392129 0.23346 1.03749 0 9.22908 8.34554 3.30104 26.5199 0 0 0
81270.20 2032.95 3.921111 50.7696 0.394628 0.237595 1.0577 0 9.56847 8.39101 3.30536 26.2756 0 0 0
80973.50 2032.43 3.958272 50.5949 0.397071 0.241718 1.07744 0 9.9138 8.436 3.30938 26.0297 0 0 0
80676.80 2031.92 3.996764 50.4159 0.399487 0.245801 1.09672 0 10.2665 8.48154 3.31357 25.7805 0 0 0
80380.10 2031.41 4.036451 50.2336 0.401859 0.249856 1.11548 0 10.6254 8.52712 3.31771 25.529 0 0 0
80083.50 2030.90 4.077341 50.0482 0.404183 0.253878 1.13367 0 10.9902 8.5727 3.32179 25.2754 0 0 0
79786.80 2030.39 4.119489 49.86 0.406462 0.257867 1.15127 0 11.3606 8.61832 3.32584 25.0197 0 0 0
79490.20 2029.88 4.162885 49.6691 0.40869 0.261819 1.16824 0 11.7361 8.66393 3.32986 24.7622 0 0 0
79193.60 2029.37 4.207569 49.4759 0.410868 0.265734 1.18456 0 12.1164 8.70955 3.33387 24.5031 0 0 0
78897.00 2028.86 4.253563 49.2806 0.412994 0.269609 1.2002 0 12.5011 8.75518 3.33786 24.2424 0 0 0
78600.40 2028.35 4.300888 49.0834 0.415067 0.273446 1.21514 0 12.8898 8.80082 3.34187 23.9805 0 0 0
78303.80 2027.84 4.349568 48.8847 0.417086 0.277242 1.22938 0 13.282 8.84647 3.34588 23.7173 0 0 0
78007.20 2027.33 4.399624 48.6846 0.41905 0.280998 1.24288 0 13.6772 8.89214 3.34993 23.4532 0 0 0
77710.70 2026.82 4.451057 48.4835 0.420956 0.284713 1.25565 0 14.075 8.9378 3.35402 23.1883 0 0 0
77414.20 2026.31 4.503908 48.2817 0.422805 0.288388 1.26768 0 14.475 8.9835 3.35815 22.9228 0 0 0
77117.70 2025.80 4.558200 48.0792 0.424597 0.292024 1.27897 0 14.8768 9.02924 3.36235 22.6568 0 0 0
76821.20 2025.29 4.613956 47.8765 0.42633 0.295623 1.28951 0 15.2798 9.07503 3.36663 22.3905 0 0 0
76524.70 2024.78 4.671199 47.6738 0.428005 0.299185 1.29932 0 15.6838 9.12089 3.371 22.124 0 0 0
76228.30 2024.27 4.729928 47.4713 0.429619 0.302711 1.3084 0 16.0881 9.1668 3.37547 21.8576 0 0 0
75931.80 2023.75 4.789975 47.2698 0.431165 0.306227 1.31676 0 16.4917 9.21234 3.37985 21.5921 0 0 0
75635.40 2023.24 4.851792 47.0683 0.43266 0.309691 1.32442 0 16.8958 9.25846 3.38456 21.3261 0 0 0
75339.00 2022.73 4.915194 46.8677 0.434095 0.313126 1.33138 0 17.2991 9.30472 3.38941 21.0605 0 0 0
75042.60 2022.22 4.980208 46.668 0.435469 0.316537 1.33767 0 17.7014 9.35113 3.3944 20.7954 0 0 0
74746.20 2021.71 5.046863 46.4696 0.436782 0.319925 1.3433 0 18.1022 9.39771 3.39956 20.531 0 0 0
74449.80 2021.20 5.115188 46.2725 0.438034 0.323294 1.3483 0 18.5012 9.44447 3.40489 20.2673 0 0 0
74153.50 2020.69 5.185186 46.0771 0.439224 0.326646 1.35267 0 18.898 9.49143 3.41039 20.0045 0 0 0
73857.10 2020.18 5.256945 45.8833 0.440353 0.329985 1.35646 0 19.2925 9.53864 3.4161 19.7427 0 0 0
73560.80 2019.67 5.330442 45.6913 0.44142 0.333315 1.35967 0 19.6842 9.58608 3.42199 19.482 0 0 0
73264.50 2019.15 5.405449 45.5019 0.442419 0.336661 1.36235 0 20.0722 9.6333 3.4279 19.2232 0 0 0
72968.30 2018.64 5.482550 45.3141 0.443361 0.339982 1.36449 0 20.4576 9.68129 3.43422 18.965 0 0 0
72672.00 2018.13 5.561561 45.1283 0.444241 0.343305 1.36614 0 20.8398 9.72963 3.44077 18.7079 0 0 0
72375.70 2017.62 5.642491 44.9448 0.445058 0.346633 1.3673 0 21.2183 9.77831 3.44756 18.4521 0 0 0
72079.50 2017.11 5.725352 44.7636 0.445811 0.34997 1.36802 0 21.5928 9.82733 3.45458 18.1978 0 0 0
71783.30 2016.60 5.810219 44.5849 0.4465 0.35332 1.36831 0 21.9633 9.87674 3.46185 17.945 0 0 0
71487.10 2016.08 5.896806 44.4093 0.447119 0.356712 1.36821 0 22.3288 9.92607 3.46917 17.6946 0 0 0
71190.90 2015.57 5.985823 44.2356 0.447679 0.360101 1.36771 0 22.6908 9.97633 3.47695 17.4448 0 0 0
70894.70 2015.06 6.076997 44.0645 0.448172 0.363516 1.36686 0 23.0483 10.027 3.48499 17.1967 0 0 0
70598.60 2014.55 6.170342 43.8961 0.448598 0.366959 1.36566 0 23.401 10.0782 3.49329 16.9502 0 0 0
70302.40 2014.04 6.265991 43.7303 0.448956 0.370437 1.36416 0 23.7491 10.1299 3.50187 16.7053 0 0 0
70006.30 2013.53 6.363925 43.5672 0.449245 0.373953 1.36235 0 24.0922 10.1821 3.51072 16.4622 0 0 0
69710.20 2013.01 6.463860 43.4074 0.449462 0.377536 1.3603 0 24.4297 10.2343 3.51965 16.2216 0 0 0
69414.10 2012.50 6.566619 43.2497 0.449611 0.381141 1.35797 0 24.7629 10.2876 3.52905 15.982 0 0 0
69118.00 2011.99 6.671893 43.0948 0.449687 0.384798 1.35541 0 25.091 10.3415 3.53872 15.744 0 0 0
68822.00 2011.48 6.779707 42.9427 0.44969 0.388509 1.35262 0 25.4138 10.396 3.54867 15.508 0 0 0
68525.90 2010.96 6.889798 42.7938 0.449617 0.392307 1.34967 0 25.7309 10.4506 3.55871 15.2744 0 0 0
68229.90 2010.45 7.002985 42.6472 0.449469 0.396143 1.3465 0 26.0433 10.5063 3.56921 15.0419 0 0 0
67933.90 2009.94 7.118976 42.5034 0.449243 0.40005 1.34317 0 26.3503 10.5627 3.57998 14.8112 0 0 0
67637.90 2009.43 7.237852 42.3622 0.448937 0.40403 1.33969 0 26.652 10.6198 3.59102 14.5823 0 0 0
67341.90 2008.92 7.359693 42.2238 0.448551 0.40809 1.33606 0 26.9483 10.6776 3.60232 14.3553 0 0 0
67046.00 2008.40 7.484055 42.0886 0.448082 0.412258 1.33235 0 27.2385 10.7355 3.61369 14.131 0 0 0
66750.00 2007.89 7.612071 41.9556 0.447529 0.416491 1.3285 0 27.5239 10.7947 3.6255 13.9077 0 0 0
66454.10 2007.38 7.743259 41.8254 0.44689 0.420817 1.32455 0 27.8038 10.8547 3.63756 13.6863 0 0 0
66158.20 2006.87 7.877763 41.6978 0.446163 0.425243 1.32051 0 28.0783 10.9154 3.64985 13.4668 0 0 0
65862.30 2006.35 8.015146 41.5732 0.445349 0.429799 1.31644 0 28.3467 10.9763 3.66219 13.25 0 0 0
65566.40 2005.84 8.156550 41.4509 0.444442 0.434441 1.31227 0 28.6101 11.0385 3.67493 13.0343 0 0 0
65270.50 2005.33 8.301557 41.3312 0.443442 0.439199 1.30805 0 28.8681 11.1016 3.68788 12.8206 0 0 0
64974.70 2004.81 8.449630 41.2144 0.442352 0.444104 1.30382 0 29.1199 11.1649 3.70083 12.6096 0 0 0
64678.90 2004.30 8.602062 41.0999 0.441162 0.449112 1.29953 0 29.3668 11.2295 3.71415 12.3999 0 0 0
64383.10 2003.79 8.758395 40.9879 0.439876 0.454255 1.29522 0 29.6081 11.2949 3.72764 12.1921 0 0 0
64087.30 2003.28 8.918733 40.8784 0.43849 0.45954 1.2909 0 29.8439 11.3612 3.74128 11.9863 0 0 0
63791.50 2002.76 9.082536 40.7717 0.43701 0.464998 1.28661 0 30.0737 11.4278 3.75487 11.7833 0 0 0
63495.70 2002.25 9.251173 40.6672 0.435425 0.470586 1.28228 0 30.2985 11.4957 3.76877 11.5816 0 0 0
63200.00 2001.74 9.424053 40.5651 0.433738 0.476336 1.27798 0 30.5176 11.5645 3.78276 11.382 0 0 0
62904.20 2001.22 9.600721 40.4657 0.431954 0.482283 1.27371 0 30.7309 11.6335 3.79664 11.1852 0 0 0
62608.50 2000.71 9.782508 40.3685 0.430062 0.488383 1.26945 0 30.939 11.7039 3.81077 10.9899 0 0 0
62312.80 2000.20 9.968906 40.2736 0.428066 0.494669 1.26522 0 31.1416 11.7752 3.82493 10.7967 0 0 0
62017.10 1999.68 10.159253 40.1814 0.425975 0.501175 1.26106 0 31.3383 11.8467 3.83892 10.6065 0 0 0
61721.50 1999.17 10.355055 40.0912 0.423774 0.507859 1.25692 0 31.5298 11.9196 3.85307 10.4178 0 0 0
61425.80 1998.66 10.555824 40.0033 0.421469 0.514759 1.25283 0 31.7158 11.9933 3.8672 10.2313 0 0 0
61130.20 1998.14 10.760654 39.918 0.419073 0.521904 1.24884 0 31.896 12.0672 3.88108 10.048 0 0 0
60834.50 1997.63 10.971418 39.8346 0.416565 0.529262 1.24487 0 32.071 12.1425 3.89505 9.86615 0 0 0
60538.90 1997.12 11.187211 39.7535 0.41396 0.536861 1.24098 0 32.2404 12.2185 3.9089 9.68681 0 0 0
60243.40 1996.60 11.407196 39.6749 0.411268 0.544737 1.23719 0 32.4041 12.2947 3.92244 9.51064 0 0 0
59947.80 1996.09 11.633373 39.5983 0.408469 0.552858 1.23345 0 32.5625 12.3723 3.93598 9.33622 0 0 0
59652.20 1995.58 11.864826 39.5237 0.405578 0.561258 1.2298 0 32.7155 12.4505 3.94933 9.16432 0 0 0
59356.70 1995.06 12.100521 39.4516 0.402609 0.569968 1.22626 0 32.8627 12.5288 3.96228 8.99571 0 0 0
59061.20 1994.55 12.342490 39.3814 0.399541 0.578959 1.2228 0 33.0047 12.6084 3.97515 8.82906 0 0 0
58765.70 1994.03 12.588772 39.3135 0.396402 0.588289 1.21946 0 33.141 12.6881 3.98758 8.66571 0 0 0
58470.20 1993.52 12.841386 39.2475 0.393172 0.597926 1.21619 0 33.2721 12.7689 3.99986 8.50442 0 0 0
58174.70 1993.01 13.099315 39.1835 0.389865 0.607908 1.21303 0 33.3977 12.8503 4.01182 8.34589 0 0 0
57879.20 1992.49 13.361421 39.1217 0.386502 0.61827 1.21001 0 33.5177 12.9317 4.02328 8.19076 0 0 0
57583.80 1991.98 13.629727 39.0618 0.38306 0.628981 1.20708 0 33.6325 13.0141 4.0345 8.03792 0 0 0
57288.40 1991.46 13.902037 39.004 0.379571 0.640101 1.20429 0 33.7418 13.0965 4.04519 7.88854 0 0 0
56993.00 1990.95 14.180561 38.9481 0.376012 0.651606 1.2016 0 33.8458 13.1798 4.0556 7.74146 0 0 0
56697.60 1990.44 14.464068 38.894 0.372402 0.663533 1.19902 0 33.9446 13.2636 4.06558 7.59733 0 0 0
56402.20 1989.92 14.751201 38.842 0.368763 0.675915 1.1966 0 34.0379 13.3471 4.07498 7.45674 0 0 0
56106.80 1989.41 15.044285 38.7917 0.36507 0.688734 1.19429 0 34.1261 13.4315 4.08406 7.31856 0 0 0
55811.50 1988.89 15.340539 38.7435 0.361361 0.702038 1.19212 0 34.209 13.5155 4.09253 7.18402 0 0 0
55516.20 1988.38 15.642481 38.6969 0.357609 0.715814 1.19007 0 34.2867 13.6004 4.10064 7.05193 0 0 0
55220.90 1987.87 15.948667 38.652 0.353835 0.730099 1.18815 0 34.3593 13.6854 4.10826 6.92289 0 0 0
54925.60 1987.35 16.257530 38.6091 0.350063 0.744925 1.18638 0 34.4269 13.77 4.11528 6.79743 0 0 0
54630.30 1986.84 16.571587 38.5677 0.346264 0.760282 1.18473 0 34.4894 13.8552 4.12192 6.67448 0 0 0
54335.00 1986.32 16.887853 38.5281 0.342478 0.776216 1.18324 0 34.547 13.9399 4.12797 6.55508 0 0 0
54039.80 1985.81 17.208789 38.4901 0.338678 0.792715 1.18186 0 34.5996 14.0252 4.13363 6.43824 0 0 0
53744.60 1985.29 17.531427 38.4537 0.334902 0.80983 1.18064 0 34.6475 14.1098 4.13871 6.32491 0 0 0
53449.30 1984.78 17.858578 38.4189 0.331119 0.827561 1.17953 0 34.6906 14.1949 4.14342 6.21403 0 0 0
53154.20 1984.26 18.186631 38.3856 0.327373 0.845934 1.17859 0 34.729 14.2792 4.14757 6.10668 0 0 0
52859.00 1983.75 18.518755 38.3537 0.323629 0.864966 1.17775 0 34.7628 14.364 4.15137 6.00173 0 0 0
52563.80 1983.23 18.851522 38.3234 0.319928 0.884692 1.17707 0 34.7921 14.448 4.15464 5.90014 0 0 0
52268.70 1982.72 19.187632 38.2944 0.31624 0.905107 1.1765 0 34.8169 14.5323 4.15757 5.80098 0 0 0
51973.50 1982.20 19.524002 38.2668 0.312601 0.926264 1.17609 0 34.8375 14.6157 4.16003 5.70502 0 0 0
51678.40 1981.69 19.863274 38.2404 0.308982 0.948155 1.17578 0 34.8537 14.6994 4.16218 5.61142 0 0 0
51383.30 1981.17 20.202164 38.2154 0.305419 0.970821 1.17562 0 34.8658 14.7821 4.16389 5.52094 0 0 0
51088.20 1980.66 20.543678 38.1916 0.30188 0.994275 1.17557 0 34.8737 14.865 4.16531 5.43267 0 0 0
50793.20 1980.14 20.884202 38.169 0.298403 1.01854 1.17566 0 34.8778 14.9469 4.16635 5.34742 0 0 0
50498.10 1979.63 21.227111 38.1474 0.294954 1.04365 1.17586 0 34.8778 15.0289 4.16714 5.26426 0 0 0
50203.10 1979.11 21.568611 38.1271 0.29157 1.06961 1.17619 0 34.8742 15.1098 4.16759 5.18395 0 0 0
49908.10 1978.60 21.912010 38.1077 0.288218 1.09645 1.17661 0 34.8667 15.1909 4.16782 5.10565 0 0 0
49613.10 1978.08 22.253781 38.0893 0.284931 1.1242 1.17717 0 34.8557 15.2709 4.16777 5.03003 0 0 0
49318.10 1977.57 22.597160 38.0719 0.281678 1.15289 1.17782 0 34.841 15.3509 4.16752 4.95629 0 0 0
49023.10 1977.05 22.938607 38.0555 0.278492 1.18253 1.1786 0 34.8231 15.4297 4.16703 4.88506 0 0 0
48728.20 1976.53 23.279554 38.0399 0.275357 1.21315 1.17948 0 34.8018 15.508 4.16636 4.81596 0 0 0
48433.30 1976.02 23.621777 38.0251 0.272259 1.24478 1.18044 0 34.777 15.5863 4.16554 4.74855 0 0 0
48138.40 1975.50 23.961728 38.0112 0.269225 1.27744 1.18151 0 34.7492 15.6635 4.16455 4.68342 0 0 0
47843.50 1974.99 24.302804 37.9979 0.266228 1.31117 1.18267 0 34.7181 15.7406 4.16343 4.61986 0 0 0
47548.60 1974.47 24.641460 37.9854 0.263295 1.34599 1.18393 0 34.6841 15.8166 4.16218 4.55843 0 0 0
47253.70 1973.96 24.981148 37.9736 0.260396 1.38193 1.18526 0 34.647 15.8926 4.16083 4.49844 0 0 0
46958.90 1973.44 25.318182 37.9624 0.257561 1.41901 1.18669 0 34.6072 15.9673 4.15937 4.44045 0 0 0
46664.00 1972.92 25.654590 37.9518 0.254773 1.45727 1.18821 0 34.5646 16.0415 4.15783 4.38404 0 0 0
46369.20 1972.41 25.991850 37.9418 0.252018 1.49675 1.18978 0 34.5189 16.1157 4.15623 4.32893 0 0 0
46074.40 1971.89 26.326580 37.9323 0.249321 1.53745 1.19144 0 34.4707 16.1887 4.15456 4.27557 0 0 0
45779.60 1971.38 26.662348 37.9232 0.246656 1.57945 1.19315 0 34.4196 16.2616 4.15284 4.22337 0 0 0
45484.90 1970.86 26.995494 37.9147 0.244048 1.62272 1.19495 0 34.3663 16.3334 4.15108 4.17281 0 0 0
45190.10 1970.34 27.328131 37.9066 0.24148 1.66735 1.19681 0 34.3104 16.4047 4.14928 4.12352 0 0 0
44895.40 1969.83 27.661816 37.8988 0.238941 1.71336 1.19871 0 34.2516 16.4759 4.14744 4.07525 0 0 0
44600.70 1969.31 27.993195 37.8914 0.236453 1.76077 1.20069 0 34.1907 16.546 4.14559 4.02841 0 0 0
44306.00 1968.80 28.325924 37.8844 0.23399 1.80965 1.2027 0 34.127 16.6161 4.1437 3.98247 0 0 0
44011.30 1968.28 28.656519 37.8777 0.231575 1.86 1.20477 0 34.0612 16.6851 4.14181 3.93784 0 0 0
43716.60 1967.76 28.986870 37.8712 0.229195 1.91187 1.20688 0 33.9931 16.7536 4.1399 3.89424 0 0 0
43422.00 1967.25 29.318744 37.865 0.226837 1.96533 1.20902 0 33.9223 16.8222 4.13797 3.85141 0 0 0
43127.30 1966.73 29.648961 37.859 0.224522 2.02039 1.21122 0 33.8495 16.8897 4.13604 3.80972 0 0 0
42832.70 1966.21 29.979159 37.8531 0.222238 2.07708 1.21344 0 33.7744 16.9567 4.1341 3.76892 0 0 0
42538.10 1965.70 30.311426 37.8475 0.219971 2.13552 1.21568 0 33.6967 17.0238 4.13212 3.72876 0 0 0
42243.50 1965.18 30.642311 37.842 0.217743 2.19566 1.21796 0 33.617 17.0898 4.13015 3.6896 0 0 0
41949.00 1964.66 30.973629 37.8366 0.215542 2.25756 1.22025 0 33.5352 17.1555 4.12816 3.65122 0 0 0
41654.40 1964.15 31.307647 37.8313 0.213354 2.32139 1.22255 0 33.4506 17.2213 4.12612 3.61333 0 0 0
