Title: Allan et al. 1989 (see Ghiorso 1997)

Liquid Composition:
Pressure Temperature mass SiO2 TiO2 Al2O3 Fe2O3 Cr2O3 FeO MgO CaO Na2O K2O P2O5 H2O 
99995.30 2089.70 6.999685 56.9141 2.20187 0.516393 0.00100493 1.27716e-05 0.00590523 0.184307 5.22138 31.6227 0.428591 0.0464741 2.85727
99697.60 2089.18 7.044502 56.9972 2.24873 0.515355 0.00106413 1.35424e-05 0.00629532 0.187424 5.27406 31.458 0.425864 0.0469201 2.83909
99399.90 2088.67 7.090612 57.0794 2.29657 0.514325 0.00112661 1.43594e-05 0.00670996 0.190631 5.32819 31.2919 0.423095 0.0473789 2.82063
99102.20 2088.16 7.137571 57.161 2.3454 0.513342 0.00119233 1.52257e-05 0.0071493 0.193897 5.38316 31.1246 0.420311 0.0478474 2.80207
98804.60 2087.64 7.184910 57.2418 2.39521 0.512445 0.00126115 1.61445e-05 0.00761306 0.197185 5.43831 30.9567 0.417542 0.0483219 2.78361
98506.90 2087.13 7.233640 57.3217 2.44612 0.511559 0.00133374 1.7119e-05 0.00810567 0.200572 5.49504 30.7872 0.414729 0.0488105 2.76486
98209.30 2086.61 7.282800 57.4008 2.49805 0.510762 0.0014097 1.81526e-05 0.00862529 0.203983 5.55199 30.6169 0.411929 0.0493055 2.7462
97911.70 2086.10 7.333382 57.479 2.55113 0.509981 0.00148973 1.92487e-05 0.00917662 0.207495 5.61056 30.445 0.409088 0.0498152 2.72725
97614.10 2085.59 7.384945 57.5562 2.60535 0.509254 0.00157374 2.04117e-05 0.00975974 0.211074 5.6701 30.2719 0.406232 0.050336 2.70821
97316.50 2085.07 7.437050 57.6326 2.66071 0.508619 0.00166159 2.1646e-05 0.0103744 0.214683 5.72998 30.0979 0.403386 0.0508644 2.68924
97018.90 2084.56 7.490671 57.7078 2.71733 0.508005 0.00175404 2.29555e-05 0.0110259 0.218401 5.79158 29.9222 0.400498 0.0514085 2.66999
96721.40 2084.05 7.545345 57.7819 2.77519 0.507451 0.00185095 2.43449e-05 0.011714 0.22219 5.85423 29.7452 0.397596 0.0519647 2.65064
96423.80 2083.53 7.600686 57.855 2.83432 0.506992 0.00195221 2.58207e-05 0.0124389 0.226015 5.91733 29.5673 0.394701 0.0525296 2.63134
96126.30 2083.02 7.657627 57.9269 2.89482 0.50656 0.00205863 2.73866e-05 0.0132061 0.229956 5.98225 29.3876 0.391766 0.0531113 2.61178
95828.80 2082.51 7.715760 57.9974 2.9567 0.506191 0.0021701 2.90495e-05 0.0140159 0.233976 6.04835 29.2065 0.388815 0.0537066 2.5921
95531.30 2081.99 7.774650 58.0669 3.01997 0.505923 0.0022864 3.0816e-05 0.0148677 0.238037 6.11498 29.0244 0.385869 0.0543114 2.57246
95233.80 2081.48 7.835297 58.1348 3.08477 0.505686 0.00240855 3.26922e-05 0.0157689 0.242223 6.1836 28.8403 0.382883 0.054935 2.55255
94936.30 2080.96 7.896788 58.2015 3.15107 0.505553 0.0025359 3.46861e-05 0.0167162 0.246455 6.25282 28.6552 0.379901 0.0555689 2.53268
94638.90 2080.45 7.960108 58.2665 3.21899 0.505455 0.00266951 3.68042e-05 0.0177173 0.250817 6.32409 28.4681 0.376879 0.0562224 2.51253
94341.50 2079.94 8.024858 58.33 3.28857 0.505428 0.00280921 3.90559e-05 0.0187722 0.255273 6.3968 28.2793 0.373838 0.0568919 2.49226
94044.10 2079.42 8.090604 58.3921 3.35981 0.50551 0.00295472 4.14504e-05 0.0198801 0.259782 6.47023 28.0893 0.3708 0.0575732 2.472
93746.70 2078.91 8.158385 58.4522 3.43291 0.50563 0.00310728 4.39972e-05 0.0210504 0.264435 6.54595 27.8972 0.36772 0.0582762 2.45147
93449.30 2078.39 8.227281 58.5108 3.50781 0.505862 0.00326607 4.67069e-05 0.0222787 0.269146 6.6225 27.7037 0.364641 0.0589922 2.43094
93151.90 2077.88 8.298349 58.5673 3.58472 0.506135 0.00343245 4.9591e-05 0.0235752 0.274011 6.70148 27.5079 0.361518 0.0597315 2.41012
92854.60 2077.36 8.370635 58.6221 3.66355 0.506524 0.00360543 5.26605e-05 0.0249348 0.278938 6.78137 27.3107 0.358396 0.0604846 2.3893
92557.20 2076.85 8.445283 58.6746 3.74462 0.506956 0.00378664 5.59312e-05 0.0263698 0.284031 6.86387 27.111 0.355228 0.0612629 2.36819
92259.90 2076.34 8.521811 58.7249 3.82787 0.507471 0.00397559 5.9415e-05 0.0278782 0.289242 6.94823 26.9093 0.352038 0.0620616 2.34692
91962.60 2075.82 8.599830 58.7732 3.91335 0.508103 0.00417194 6.31283e-05 0.0294593 0.29453 7.03374 26.706 0.348844 0.0628767 2.32563
91665.30 2075.31 8.680459 58.8189 4.00135 0.508784 0.00437734 6.70889e-05 0.0311259 0.299998 7.12211 26.5 0.345604 0.0637195 2.30403
91368.00 2074.79 8.762771 58.8622 4.09181 0.509586 0.00459064 7.13141e-05 0.0328719 0.305552 7.21181 26.2921 0.342357 0.0645803 2.28238
91070.80 2074.28 8.847881 58.9027 4.18502 0.510438 0.00481355 7.58241e-05 0.0347108 0.311296 7.30453 26.0815 0.339064 0.0654708 2.26043
90773.50 2073.76 8.934936 58.9406 4.28097 0.511412 0.00504497 8.0642e-05 0.0366371 0.31714 7.39883 25.8687 0.335761 0.0663815 2.2384
90476.30 2073.25 9.025053 58.9753 4.37997 0.512438 0.00528669 8.57909e-05 0.0386649 0.323189 7.49639 25.6529 0.332408 0.0673245 2.21605
90179.10 2072.73 9.117339 59.0071 4.482 0.513588 0.00553737 9.12961e-05 0.0407872 0.329348 7.59571 25.4349 0.329043 0.0682896 2.19362
89881.90 2072.22 9.213039 59.0353 4.58747 0.51479 0.00579916 9.71898e-05 0.0430213 0.335731 7.69862 25.2134 0.325625 0.0692902 2.17084
89584.70 2071.70 9.311222 59.0603 4.69632 0.516118 0.0060705 0.0001035 0.0453586 0.342239 7.80356 24.9895 0.322192 0.0703157 2.14795
89287.60 2071.19 9.413150 59.0811 4.80902 0.517497 0.00635358 0.000110265 0.0478172 0.348989 7.91239 24.7619 0.318703 0.0713797 2.12469
88990.40 2070.67 9.517982 59.0984 4.92558 0.519001 0.00664695 0.000117522 0.0503893 0.355883 8.02361 24.5315 0.315193 0.0724722 2.10129
88693.30 2070.16 9.627009 59.111 5.04651 0.520555 0.00695284 0.000125316 0.053094 0.363043 8.13912 24.2969 0.311623 0.0736071 2.07749
88396.20 2069.64 9.739356 59.1193 5.17178 0.522233 0.00726954 0.000133692 0.0559217 0.370365 8.25735 24.0593 0.308029 0.0747739 2.05352
88099.10 2069.13 9.856497 59.1224 5.30211 0.523957 0.00759972 0.00014271 0.0588955 0.377983 8.38041 23.817 0.304368 0.0759884 2.02912
87802.00 2068.61 9.977530 59.1207 5.43745 0.525802 0.00794138 0.000152423 0.0620037 0.385789 8.50667 23.5711 0.300676 0.0772394 2.0045
87505.00 2068.10 10.103993 59.1128 5.57859 0.527688 0.00829726 0.000162907 0.0652707 0.393921 8.63828 23.3201 0.296912 0.0785434 1.97942
87207.90 2067.58 10.235122 59.0992 5.72563 0.52969 0.00866547 0.000174233 0.0686862 0.402276 8.77375 23.0648 0.293108 0.0798902 1.95406
86910.90 2067.07 10.372553 59.0786 5.87949 0.531724 0.00904883 0.000186497 0.0722758 0.410998 8.91531 22.8037 0.289225 0.0812972 1.92817
86613.90 2066.55 10.515520 59.0512 6.04026 0.533865 0.00944512 0.000199787 0.0760269 0.419977 9.06141 22.5377 0.285293 0.0827536 1.90195
86316.80 2066.04 10.662522 59.0331 6.18642 0.535935 0.00986267 0.000213624 0.0799831 0.429351 9.20579 22.2781 0.281359 0.0841941 1.87573
86019.90 2065.52 10.798767 59.0828 6.24399 0.537811 0.0103135 0.00022585 0.0841481 0.438768 9.31664 22.0701 0.277809 0.0853187 1.85206
85722.90 2065.01 10.937294 59.134 6.29784 0.539807 0.0107836 0.000238662 0.0885123 0.448425 9.4281 21.863 0.274291 0.0864604 1.82861
85425.90 2064.49 11.076448 59.1878 6.34701 0.542013 0.0112699 0.000252036 0.0930529 0.458162 9.53771 21.6587 0.270845 0.0876006 1.80563
85129.00 2063.97 11.216793 59.2439 6.39179 0.544394 0.0117743 0.000265996 0.0977861 0.468041 9.6464 21.4564 0.267456 0.0887468 1.78304
84832.10 2063.46 11.359041 59.3017 6.43247 0.546918 0.0122991 0.000280575 0.102734 0.478138 9.7552 21.2556 0.264107 0.0899081 1.76071
84535.20 2062.94 11.501599 59.3624 6.46835 0.549673 0.0128412 0.000295752 0.107872 0.48829 9.86178 21.0577 0.260833 0.0910663 1.73889
84238.30 2062.43 11.645895 59.425 6.50006 0.552584 0.0134046 0.000311576 0.113237 0.49865 9.96825 20.8613 0.257601 0.0922389 1.71734
83941.40 2061.91 11.790357 59.4906 6.52707 0.55574 0.0139859 0.000328026 0.1188 0.509049 10.0723 20.6679 0.254445 0.0934078 1.6963
83644.50 2061.40 11.936449 59.5581 6.54995 0.559065 0.0145894 0.000345151 0.124602 0.519646 10.1762 20.4761 0.251331 0.0945911 1.67554
83347.70 2060.88 12.082557 59.6284 6.56832 0.562645 0.015211 0.000362927 0.130609 0.530265 10.2775 20.2874 0.248292 0.0957698 1.65528
83050.90 2060.36 12.229483 59.7011 6.58254 0.566446 0.0158534 0.000381393 0.136845 0.540988 10.3773 20.1009 0.245309 0.0969539 1.63539
82754.10 2059.85 12.377979 59.7756 6.5929 0.570431 0.0165194 0.000400586 0.143338 0.551898 10.4768 19.9158 0.242366 0.0981526 1.61577
82457.30 2059.33 12.526536 59.8528 6.59919 0.574687 0.0172044 0.000420489 0.150051 0.56282 10.5738 19.7337 0.239492 0.0993478 1.59661
82160.50 2058.82 12.676690 59.9316 6.60186 0.579137 0.0179139 0.000441158 0.157032 0.573925 10.6703 19.5529 0.236655 0.100558 1.5777
81863.70 2058.30 12.826955 60.0129 6.6008 0.583866 0.018643 0.00046258 0.164243 0.585036 10.7644 19.3748 0.233882 0.101766 1.55922
81567.00 2057.78 12.978067 60.0961 6.59631 0.588836 0.0193943 0.000484789 0.171706 0.596232 10.857 19.1987 0.231159 0.10298 1.54106
81270.20 2057.27 13.130960 60.1808 6.58861 0.594014 0.0201714 0.000507842 0.17946 0.607617 10.9493 19.0237 0.228468 0.104211 1.52312
80973.50 2056.75 13.284050 60.2675 6.57773 0.599481 0.0209686 0.000531713 0.187452 0.618996 11.0392 18.8512 0.225835 0.10544 1.50556
80676.80 2056.24 13.438980 60.3555 6.56391 0.605161 0.0217923 0.000556474 0.195744 0.630559 11.1288 18.6798 0.223231 0.106686 1.48821
80380.10 2055.72 13.594309 60.4454 6.54726 0.611138 0.0226367 0.000582117 0.204288 0.642122 11.2162 18.5106 0.220681 0.107932 1.4712
80083.50 2055.20 13.750804 60.5367 6.52795 0.617375 0.0235048 0.000608682 0.213111 0.653772 11.3022 18.343 0.218169 0.109186 1.45446
79786.80 2054.69 13.909438 60.6289 6.50612 0.623836 0.0244009 0.000636237 0.222255 0.665618 11.3881 18.1761 0.215681 0.110461 1.43787
79490.20 2054.17 14.068648 60.7227 6.48192 0.630604 0.0253181 0.000664758 0.231662 0.677461 11.4719 18.0112 0.21324 0.111735 1.4216
79193.60 2053.65 14.229348 60.8175 6.45549 0.637642 0.0262602 0.00069431 0.241367 0.689402 11.5546 17.8476 0.210832 0.113021 1.40555
78897.00 2053.14 14.392395 60.913 6.4269 0.644916 0.0272312 0.000724946 0.251411 0.701543 11.6372 17.6846 0.208443 0.114328 1.38962
78600.40 2052.62 14.556361 61.0098 6.39635 0.652506 0.0282241 0.000756666 0.261733 0.713692 11.7179 17.5233 0.206095 0.115636 1.37397
78303.80 2052.10 14.722108 61.1074 6.36393 0.660379 0.0292428 0.000789529 0.272372 0.725948 11.7976 17.3631 0.203775 0.116958 1.3585
78007.20 2051.59 14.890508 61.2054 6.32966 0.668497 0.0302916 0.000823593 0.283368 0.738416 11.8775 17.2032 0.201471 0.118302 1.34314
77710.70 2051.07 15.060057 61.3044 6.2938 0.676942 0.0313624 0.000858852 0.294652 0.750893 11.9554 17.0449 0.199202 0.11965 1.32802
77414.20 2050.55 15.231699 61.4039 6.25636 0.68568 0.0324599 0.000895379 0.306268 0.763489 12.0326 16.8874 0.196958 0.121012 1.31305
77117.70 2050.04 15.406328 61.5036 6.21734 0.694675 0.0335884 0.000933239 0.318262 0.776311 12.1099 16.7301 0.194725 0.122398 1.29817
76821.20 2049.52 15.582494 61.604 6.17701 0.704011 0.0347399 0.000972441 0.330561 0.789158 12.1856 16.5741 0.192524 0.12379 1.28349
76524.70 2049.00 15.761092 61.7048 6.13537 0.713652 0.0359187 0.00101305 0.343208 0.802136 12.2606 16.4188 0.190342 0.125198 1.26895
76228.30 2048.49 15.942960 61.8056 6.09237 0.723559 0.0371292 0.00105513 0.356249 0.815351 12.3359 16.2636 0.188171 0.126631 1.25447
75931.80 2047.97 16.126781 61.9069 6.0483 0.733823 0.0383635 0.00109872 0.369612 0.828608 12.4096 16.1094 0.186026 0.128072 1.24017
75635.40 2047.45 16.313317 62.0083 6.00314 0.744402 0.0396252 0.00114386 0.383334 0.842004 12.4828 15.9558 0.183899 0.12953 1.22599
75339.00 2046.94 16.503585 62.1096 5.95679 0.755264 0.0409201 0.00119065 0.397474 0.855662 12.5563 15.8022 0.181779 0.131016 1.21186
75042.60 2046.42 16.696091 62.2112 5.90958 0.766492 0.0422385 0.0012391 0.411943 0.869368 12.6283 15.6496 0.179683 0.13251 1.19789
74746.20 2045.90 16.891776 62.3128 5.86144 0.778052 0.0435854 0.0012893 0.426793 0.883236 12.6999 15.4973 0.177601 0.134023 1.18401
74449.80 2045.38 17.090778 62.4143 5.81241 0.789948 0.044961 0.0013413 0.442028 0.897273 12.7711 15.3454 0.175533 0.135555 1.17022
74153.50 2044.87 17.293998 62.5154 5.76242 0.802142 0.0463705 0.00139519 0.4577 0.911592 12.8426 15.1933 0.173471 0.137118 1.15647
73857.10 2044.35 17.500065 62.6166 5.71176 0.814726 0.0478041 0.00145101 0.473722 0.925984 12.9129 15.042 0.171428 0.138691 1.14285
73560.80 2043.83 17.709795 62.7177 5.66038 0.827656 0.0492662 0.00150882 0.490138 0.940557 12.9828 14.891 0.169398 0.140284 1.12932
73264.50 2043.31 17.923426 62.8185 5.60829 0.840943 0.0507576 0.00156873 0.506959 0.955323 13.0523 14.7403 0.167379 0.141899 1.11586
72968.30 2042.80 18.141911 62.9187 5.55539 0.854545 0.0522838 0.0016308 0.524242 0.970401 13.1222 14.5893 0.165363 0.143547 1.10242
72672.00 2042.28 18.326930 63.0242 5.50872 0.873956 0.0535732 0.00169262 0.539186 0.979157 13.1598 14.4596 0.163694 0.145107 1.09129
72375.70 2041.76 18.437538 63.1402 5.47572 0.905684 0.0543253 0.00175119 0.548642 0.974591 13.1323 14.3729 0.162712 0.146476 1.08474
72079.50 2041.24 18.550790 63.2552 5.44233 0.938695 0.0550789 0.00181165 0.558176 0.970186 13.1057 14.2851 0.161718 0.147864 1.07812
71783.30 2040.73 18.666876 63.3691 5.40853 0.973128 0.0558348 0.00187403 0.567795 0.96592 13.0802 14.1963 0.160712 0.14928 1.07142
71487.10 2040.21 18.785808 63.4821 5.37433 1.00883 0.0565924 0.00193847 0.577504 0.961849 13.0555 14.1064 0.159695 0.150705 1.06463
71190.90 2039.69 18.907744 63.594 5.33972 1.04593 0.0573523 0.00200499 0.587303 0.957953 13.0318 14.0154 0.158665 0.15215 1.05777
70894.70 2039.17 19.032798 63.7048 5.30467 1.08446 0.0581146 0.00207368 0.597198 0.954235 13.0091 13.9233 0.157623 0.153615 1.05082
70598.60 2038.65 19.161048 63.8144 5.26921 1.12442 0.0588794 0.00214456 0.607188 0.950701 12.9874 13.8301 0.156568 0.155098 1.04378
70302.40 2038.14 19.292782 63.9228 5.23327 1.166 0.0596479 0.00221775 0.617284 0.947332 12.967 13.7357 0.155499 0.156613 1.03666
70006.30 2037.62 19.427894 64.03 5.19691 1.20897 0.0604188 0.00229332 0.627483 0.944179 12.9475 13.6402 0.154417 0.158137 1.02945
69710.20 2037.10 19.566634 64.1361 5.1601 1.25348 0.0611932 0.00237135 0.637793 0.941222 12.9291 13.5435 0.153322 0.159683 1.02215
69414.10 2036.58 19.709143 64.2409 5.12283 1.29956 0.0619712 0.00245192 0.648219 0.938467 12.9118 13.4455 0.152214 0.161249 1.01476
69118.00 2036.06 19.855566 64.3444 5.08509 1.34724 0.0627532 0.00253512 0.658764 0.935917 12.8957 13.3464 0.151091 0.162838 1.00727
68822.00 2035.55 20.006105 64.4464 5.04686 1.39665 0.0635398 0.00262098 0.669433 0.933559 12.8809 13.246 0.149954 0.164457 0.999695
68525.90 2035.03 20.160824 64.5472 5.00816 1.44759 0.0643306 0.00270971 0.680234 0.931434 12.8671 13.1443 0.148803 0.166089 0.992023
68229.90 2034.51 20.319874 64.6467 4.96899 1.50018 0.065126 0.00280131 0.691166 0.929528 12.8545 13.0414 0.147639 0.167744 0.984258
67933.90 2033.99 20.483480 64.7447 4.92934 1.55444 0.0659266 0.00289592 0.70224 0.927844 12.8431 12.9373 0.146459 0.169421 0.976397
67637.90 2033.47 20.651819 64.8414 4.88919 1.61041 0.0667327 0.00299363 0.713459 0.926387 12.8328 12.8318 0.145266 0.171121 0.968438
67341.90 2032.95 20.825076 64.9366 4.84854 1.6681 0.0675446 0.00309456 0.724831 0.925161 12.8238 12.725 0.144057 0.172845 0.960381
67046.00 2032.44 21.003526 65.0301 4.80738 1.72765 0.0683634 0.00319875 0.736363 0.924157 12.8162 12.6169 0.142833 0.174603 0.952221
66750.00 2031.92 21.187213 65.1223 4.76573 1.78881 0.069188 0.00330645 0.748058 0.923406 12.8097 12.5075 0.141595 0.176375 0.943966
66454.10 2031.40 21.376353 65.2131 4.72359 1.85171 0.0700193 0.00341767 0.759921 0.9229 12.8043 12.3969 0.140342 0.178172 0.935613
66158.20 2030.88 21.571230 65.3024 4.68094 1.91638 0.0708579 0.00353258 0.77196 0.922641 12.8002 12.2849 0.139074 0.179994 0.927161
65862.30 2030.36 21.772071 65.3901 4.63779 1.98281 0.071704 0.0036513 0.784184 0.922634 12.7973 12.1716 0.137791 0.181841 0.918608
65566.40 2029.84 21.979115 65.4763 4.59413 2.05103 0.0725582 0.00377397 0.796599 0.922884 12.7956 12.0569 0.136493 0.183714 0.909955
65270.50 2029.32 22.192611 65.561 4.54996 2.12103 0.0734207 0.00390073 0.809213 0.923395 12.7952 11.9409 0.13518 0.185614 0.901201
64974.70 2028.81 22.412951 65.6438 4.50525 2.19297 0.074293 0.00403164 0.822038 0.924163 12.7961 11.8235 0.133851 0.187552 0.892341
64678.90 2028.29 22.640072 65.7254 4.46008 2.26651 0.0751733 0.00416696 0.835067 0.92521 12.7981 11.7049 0.132508 0.189506 0.883389
64383.10 2027.77 22.874460 65.8054 4.4144 2.34183 0.0760633 0.00430682 0.848318 0.926533 12.8012 11.585 0.131151 0.191487 0.874338
64087.30 2027.25 23.116415 65.8838 4.36822 2.41894 0.0769632 0.00445136 0.861798 0.928136 12.8055 11.4637 0.129778 0.193498 0.865186
63791.50 2026.73 23.366249 65.9607 4.32153 2.49781 0.0778737 0.00460077 0.875516 0.930024 12.8109 11.3411 0.12839 0.195537 0.855935
63495.70 2026.21 23.624293 66.036 4.27435 2.57844 0.0787952 0.00475521 0.889481 0.932204 12.8175 11.2173 0.126988 0.197605 0.846586
63200.00 2025.69 23.890796 66.1098 4.22669 2.6608 0.0797277 0.00491481 0.903698 0.93468 12.8252 11.0921 0.125571 0.199703 0.837142
62904.20 2025.17 24.166312 66.182 4.17852 2.74493 0.0806726 0.00507985 0.918185 0.937459 12.8339 10.9657 0.12414 0.201832 0.827598
62608.50 2024.65 24.451025 66.2527 4.12989 2.83075 0.0816295 0.00525043 0.932942 0.940547 12.8437 10.838 0.122694 0.203991 0.817962
62312.80 2024.13 24.745433 66.3218 4.08077 2.91828 0.0825994 0.0054268 0.947986 0.94395 12.8545 10.709 0.121234 0.206181 0.80823
62017.10 2023.61 25.049959 66.3894 4.03118 3.0075 0.0835829 0.00560916 0.963326 0.947677 12.8663 10.5789 0.119761 0.208404 0.798405
61721.50 2023.09 25.364932 66.4555 3.98114 3.09835 0.0845802 0.00579766 0.978969 0.951733 12.879 10.4475 0.118274 0.210659 0.78849
61425.80 2022.58 25.691416 66.5198 3.93057 3.19111 0.0855945 0.00599264 0.994958 0.956131 12.8929 10.3147 0.116771 0.21296 0.77847
61130.20 2022.06 26.028946 66.5829 3.87961 3.28523 0.086622 0.00619422 1.01126 0.960873 12.9074 10.181 0.115256 0.215283 0.768375
60834.50 2021.54 26.378635 66.6446 3.8282 3.38097 0.087666 0.00640277 1.0279 0.965974 12.9227 10.046 0.113728 0.21764 0.758189
60538.90 2021.02 26.740781 66.7048 3.77637 3.47823 0.0887266 0.00661839 1.04491 0.97144 12.9388 9.90996 0.112188 0.220033 0.747921
60243.40 2020.50 27.115946 66.7636 3.72414 3.57698 0.0898043 0.00684132 1.06228 0.977279 12.9555 9.77285 0.110636 0.22246 0.737573
59947.80 2019.98 27.447486 66.8267 3.67917 3.66415 0.0911186 0.00703267 1.0811 0.984436 12.9669 9.6548 0.1093 0.224309 0.710989
59652.20 2019.46 27.684263 66.898 3.64771 3.72885 0.09284 0.0071582 1.10207 0.993483 12.9682 9.57223 0.108365 0.225089 0.65601
59356.70 2018.94 27.948049 66.9656 3.61329 3.79909 0.0944981 0.00730139 1.12291 1.00237 12.972 9.48188 0.107342 0.226117 0.607546
59061.20 2018.42 28.237791 67.0298 3.57622 3.87436 0.0961031 0.00746125 1.1437 1.01119 12.9782 9.38459 0.106241 0.227367 0.564682
58765.70 2017.90 28.552743 67.091 3.53678 3.95425 0.0976637 0.00763701 1.16452 1.02001 12.9865 9.28107 0.105069 0.228817 0.526668
58470.20 2017.38 28.892477 67.1493 3.4952 4.03837 0.0991876 0.00782813 1.18541 1.02891 12.9967 9.17194 0.103833 0.230448 0.492873
58174.70 2016.86 29.217645 67.1842 3.45631 4.12359 0.100983 0.00802289 1.20914 1.03955 13.0106 9.06986 0.102678 0.232265 0.462831
57879.20 2016.34 29.325519 67.0909 3.44359 4.19539 0.104615 0.00816162 1.24963 1.06012 13.038 9.0365 0.1023 0.234348 0.436403
57583.80 2015.82 29.439987 66.991 3.4302 4.27005 0.10836 0.00830838 1.29144 1.08122 13.0668 9.00136 0.101902 0.236562 0.412773
57288.40 2015.30 29.560881 66.8849 3.41617 4.34744 0.11222 0.00846292 1.33459 1.10286 13.0969 8.96455 0.101485 0.238897 0.391602
56993.00 2014.78 29.688043 66.7729 3.40153 4.42746 0.116196 0.00862502 1.37909 1.12505 13.128 8.92615 0.101051 0.241345 0.372611
56697.60 2014.26 29.821362 66.6554 3.38632 4.50999 0.120288 0.00879453 1.42495 1.14779 13.1601 8.88625 0.100599 0.243898 0.355557
56402.20 2013.74 29.960764 66.5328 3.37056 4.59497 0.124498 0.00897134 1.47217 1.17109 13.1931 8.8449 0.100131 0.246551 0.340232
56106.80 2013.22 30.106212 66.4052 3.35428 4.68232 0.128827 0.00915538 1.52077 1.19495 13.2269 8.80217 0.0996472 0.249298 0.326453
