Title: Allan et al. 1989 (see Ghiorso 1997)

liquid_0 thermodynamic data and composition:
Pressure Temperature mass S H V Cp viscosity SiO2 TiO2 Al2O3 Fe2O3 Cr2O3 FeO MgO CaO Na2O K2O P2O5 H2O Mg#
99995.30 2066.99 5.771172 -4.180878 -123338.506848 -15.207102 12.592787 -0.565 56.8473 2.02277 0.630076 0.000648889 1.4142e-05 0.00392286 0.122741 3.98957 32.3577 0.519825 0.0399436 3.4655 98.2
99697.60 2066.49 5.815433 -3.780559 -122718.792541 -14.976279 12.630622 -0.556 56.9454 2.06899 0.628226 0.000688517 1.49528e-05 0.00418906 0.124978 4.03349 32.1987 0.515869 0.0403068 3.43912 98.2
99399.90 2065.98 5.860006 -3.381849 -122114.392143 -14.747136 12.668922 -0.546 57.0429 2.11591 0.62649 0.000730167 1.58105e-05 0.00447097 0.127238 4.07762 32.0391 0.511945 0.0406744 3.41297 98.1
99102.20 2065.47 5.905430 -2.982418 -121528.389542 -14.519387 12.708516 -0.537 57.1397 2.16374 0.624815 0.00077405 1.67173e-05 0.00477009 0.129542 4.12241 31.8784 0.508007 0.041049 3.38671 98.0
98804.60 2064.96 5.951702 -2.582371 -120961.063843 -14.293098 12.749409 -0.528 57.2359 2.21248 0.623203 0.000820249 1.76756e-05 0.00508722 0.13189 4.16787 31.7168 0.504057 0.0414306 3.36038 97.9
98506.90 2064.45 5.998894 -2.181290 -120412.288767 -14.068092 12.791688 -0.518 57.3314 2.26219 0.621654 0.000868907 1.8689e-05 0.0054236 0.134284 4.21406 31.5542 0.500092 0.04182 3.33395 97.8
98209.30 2063.95 6.047498 -1.777242 -119885.558283 -13.844247 12.836127 -0.508 57.4261 2.31307 0.620121 0.000920251 1.97594e-05 0.00578089 0.136745 4.26143 31.3903 0.496073 0.0422196 3.30715 97.7
97911.70 2063.44 6.096525 -1.374393 -119374.787925 -13.622007 12.881192 -0.499 57.5201 2.36471 0.618709 0.000974117 2.08919e-05 0.00615857 0.139234 4.30907 31.2258 0.492084 0.0426244 3.28056 97.6
97614.10 2062.93 6.146521 -0.970450 -118883.204207 -13.401086 12.927719 -0.489 57.6133 2.41733 0.617366 0.00103077 2.20894e-05 0.00655859 0.141774 4.35749 31.0602 0.488081 0.0430372 3.25387 97.5
97316.50 2062.42 6.197510 -0.565329 -118410.994815 -13.181468 12.975745 -0.479 57.7057 2.47096 0.616094 0.00109033 2.33557e-05 0.00698214 0.144365 4.40669 30.8935 0.484065 0.0434584 3.2271 97.4
97018.90 2061.91 6.249521 -0.158943 -117958.357521 -12.963138 13.025309 -0.469 57.7972 2.52562 0.614896 0.00115292 2.46949e-05 0.00743046 0.14701 4.45671 30.7258 0.480037 0.0438881 3.20025 97.2
96721.40 2061.40 6.302554 0.248623 -117525.588223 -12.746156 13.076420 -0.459 57.8878 2.58129 0.613775 0.00121867 2.61107e-05 0.00790465 0.149708 4.50753 30.5571 0.475998 0.0443264 3.17332 97.1
96423.80 2060.90 6.357212 0.659972 -117115.927536 -12.530085 13.129981 -0.449 57.9774 2.6383 0.61268 0.00128795 2.76079e-05 0.00840771 0.152486 4.55976 30.3869 0.471905 0.0447771 3.14603 97.0
96126.30 2060.39 6.412433 1.070527 -116723.391089 -12.315595 13.184377 -0.439 58.0662 2.69609 0.611714 0.00136046 2.91918e-05 0.00893818 0.1553 4.61234 30.2161 0.467841 0.0452338 3.11894 96.9
95828.80 2059.88 6.468796 1.482729 -116351.313507 -12.102322 13.240482 -0.429 58.1539 2.75496 0.610829 0.00143657 3.08673e-05 0.00949894 0.158174 4.66582 30.0441 0.463765 0.0457 3.09177 96.7
95531.30 2059.37 6.526333 1.896683 -115999.949479 -11.890251 13.298346 -0.418 58.2407 2.81493 0.610026 0.00151642 3.26398e-05 0.0100915 0.16111 4.72025 29.871 0.459676 0.046176 3.06451 96.6
95233.80 2058.86 6.585080 2.312499 -115669.566488 -11.679361 13.358016 -0.408 58.3264 2.87599 0.609306 0.00160019 3.45151e-05 0.0107176 0.16411 4.77563 29.6968 0.455575 0.0466621 3.03717 96.5
94936.30 2058.35 6.645072 2.730291 -115360.445265 -11.469635 13.419546 -0.397 58.4111 2.93818 0.608672 0.00168802 3.64994e-05 0.0113787 0.167177 4.832 29.5214 0.451462 0.0471584 3.00975 96.3
94638.90 2057.85 6.706841 3.152128 -115076.278275 -11.260862 13.483757 -0.387 58.4944 3.00176 0.60808 0.00178036 3.85978e-05 0.0120783 0.170336 4.88992 29.3446 0.447304 0.0476688 2.98203 96.2
94341.50 2057.34 6.769408 3.574046 -114810.627490 -11.053477 13.549133 -0.376 58.5768 3.06619 0.607622 0.00187683 4.0819e-05 0.012815 0.173542 4.94833 29.167 0.44317 0.0481866 2.95447 96.0
94044.10 2056.83 6.833336 3.998304 -114567.149389 -10.847193 13.616535 -0.365 58.658 3.13176 0.607255 0.00197791 4.31697e-05 0.0135922 0.176821 5.00781 28.9882 0.439024 0.0487155 2.92683 95.9
93746.70 2056.32 6.898667 4.425034 -114346.181497 -10.641991 13.686021 -0.354 58.738 3.19848 0.606979 0.00208378 4.56578e-05 0.0144121 0.180176 5.0684 28.8082 0.434867 0.0492559 2.89911 95.7
93449.30 2055.81 6.965444 4.854371 -114148.076455 -10.437849 13.757656 -0.343 58.8168 3.26635 0.606796 0.00219463 4.82916e-05 0.0152768 0.18361 5.13012 28.627 0.430698 0.0498081 2.87132 95.5
93151.90 2055.30 7.033713 5.286457 -113973.202240 -10.234744 13.831503 -0.332 58.8944 3.33537 0.606707 0.00231068 5.10796e-05 0.0161884 0.187125 5.19301 28.4445 0.426517 0.0503724 2.84345 95.4
92854.60 2054.79 7.103487 5.721251 -113821.928071 -10.032726 13.907590 -0.321 58.9706 3.40552 0.606714 0.00243207 5.40302e-05 0.0171489 0.190722 5.25705 28.261 0.422328 0.0509489 2.81552 95.2
92557.20 2054.28 7.174880 6.159271 -113694.672575 -9.831627 13.986065 -0.310 59.0456 3.47685 0.606818 0.00255912 5.71553e-05 0.0181614 0.194409 5.32235 28.0761 0.418125 0.0515383 2.7875 95.0
92259.90 2053.77 7.247874 6.600300 -113591.812507 -9.631568 14.066917 -0.298 59.1192 3.54929 0.607019 0.00269197 6.04632e-05 0.0192275 0.198185 5.38887 27.89 0.413914 0.0521405 2.75943 94.8
91962.60 2053.27 7.323097 7.046815 -113517.473047 -9.432187 14.151092 -0.287 59.1912 3.62322 0.607275 0.00283132 6.39663e-05 0.0203534 0.202084 5.4573 27.7022 0.409663 0.0527604 2.73109 94.7
91665.30 2052.76 7.399517 7.494714 -113464.777629 -9.233990 14.237007 -0.275 59.262 3.69791 0.607676 0.00297657 6.76756e-05 0.0215358 0.20605 5.52643 27.5136 0.405432 0.0533897 2.70288 94.5
91368.00 2052.25 7.477729 7.946292 -113437.824090 -9.036686 14.325566 -0.263 59.3315 3.77371 0.608177 0.00312838 7.16039e-05 0.0227805 0.210118 5.5969 27.3237 0.401191 0.054033 2.67461 94.3
91070.80 2051.74 7.557750 8.401527 -113437.013487 -8.840320 14.416802 -0.252 59.3996 3.85054 0.608781 0.00328695 7.57627e-05 0.0240898 0.214287 5.66871 27.1327 0.396944 0.0546903 2.64629 94.1
90773.50 2051.23 7.639708 8.860971 -113462.957931 -8.644726 14.510886 -0.240 59.4663 3.92844 0.609487 0.00345267 8.01687e-05 0.0254679 0.218567 5.74195 26.9403 0.392685 0.0553626 2.6179 93.9
90476.30 2050.72 7.723587 9.324413 -113516.000437 -8.450018 14.607807 -0.228 59.5315 4.00732 0.610297 0.0036257 8.48334e-05 0.0269169 0.222956 5.81658 26.7467 0.388421 0.0560494 2.58947 93.7
90179.10 2050.21 7.809479 9.792218 -113596.711074 -8.256100 14.707692 -0.216 59.5954 4.08715 0.611211 0.00380637 8.97737e-05 0.0284407 0.227461 5.89267 26.5519 0.384149 0.0567515 2.56099 93.4
89881.90 2049.70 7.897441 10.264559 -113705.595894 -8.062945 14.810624 -0.203 59.6578 4.16788 0.612231 0.00399498 9.50057e-05 0.0300427 0.232085 5.97022 26.3559 0.37987 0.0574691 2.53247 93.2
89584.70 2049.19 7.987530 10.741609 -113843.163677 -7.870528 14.916684 -0.191 59.7188 4.24944 0.613355 0.00419186 0.000100546 0.0317265 0.236833 6.04927 26.1586 0.375585 0.0582025 2.5039 93.0
89287.60 2048.68 8.079761 11.223336 -114009.790076 -7.678891 15.025900 -0.179 59.7784 4.33174 0.614587 0.00439722 0.000106411 0.0334953 0.241707 6.12978 25.9602 0.371298 0.0589515 2.47532 92.8
88990.40 2048.17 8.174270 11.710306 -114206.231531 -7.487870 15.138457 -0.166 59.8367 4.41475 0.615925 0.00461157 0.000112623 0.0353542 0.246716 6.21185 25.7606 0.367005 0.0597172 2.4467 92.6
88693.30 2047.66 8.271026 12.202275 -114432.705065 -7.297579 15.254324 -0.154 59.8936 4.49832 0.617371 0.00483507 0.000119197 0.0373059 0.251859 6.29541 25.5599 0.362712 0.0604989 2.41808 92.3
88396.20 2047.15 8.370122 12.699593 -114689.820324 -7.107924 15.373627 -0.141 59.9492 4.58235 0.618926 0.00506816 0.000126155 0.0393553 0.257143 6.3805 25.3582 0.358418 0.0612973 2.38945 92.1
88099.10 2046.64 8.471605 13.202402 -114978.033233 -6.918883 15.496435 -0.128 60.0036 4.66674 0.62059 0.00531119 0.000133518 0.0415068 0.262572 6.46712 25.1554 0.354124 0.0621125 2.36083 91.9
87802.00 2046.13 8.575518 13.710828 -115297.771476 -6.730434 15.622810 -0.115 60.0568 4.75134 0.622365 0.00556455 0.000141308 0.0437647 0.26815 6.55525 24.9517 0.349833 0.0629445 2.33222 91.6
87505.00 2045.62 8.681852 14.224769 -115649.224967 -6.542624 15.752749 -0.102 60.1088 4.83597 0.624251 0.0058285 0.000149545 0.046133 0.273879 6.64484 24.7471 0.345548 0.0637931 2.30366 91.4
87207.90 2045.12 8.791363 14.747062 -116037.771303 -6.355016 15.887373 -0.089 60.1595 4.92096 0.626203 0.00610459 0.000158261 0.0486253 0.279812 6.73675 24.5411 0.341244 0.064665 2.27496 91.1
86910.90 2044.61 8.902729 15.272728 -116454.092074 -6.168297 16.024700 -0.076 60.2096 5.00519 0.628316 0.00639118 0.000167464 0.0512305 0.28586 6.82926 24.335 0.336975 0.0655475 2.2465 90.9
86613.90 2044.10 9.016637 15.804327 -116903.187027 -5.982102 16.165761 -0.063 60.2589 5.08894 0.630545 0.00668967 0.000177185 0.0539616 0.292073 6.92317 24.1282 0.332718 0.0664467 2.21812 90.6
86316.80 2043.59 9.133149 16.342101 -117385.474277 -5.796355 16.310637 -0.050 60.3076 5.17202 0.632892 0.00700062 0.000187452 0.0568248 0.298456 7.01846 23.9209 0.328474 0.067363 2.18983 90.3
86019.90 2043.08 9.252111 16.885369 -117900.289389 -5.611251 16.459130 -0.037 60.3557 5.2541 0.63536 0.00732408 0.000198277 0.0598219 0.305004 7.11494 23.7133 0.32425 0.0682949 2.16167 90.1
85722.90 2042.57 9.373664 17.434756 -118448.392920 -5.426584 16.611424 -0.023 60.4034 5.33505 0.637952 0.00766085 0.000209696 0.0629618 0.311727 7.21266 23.5054 0.320046 0.0692433 2.13364 89.8
85425.90 2042.06 9.497738 17.989960 -119029.449895 -5.242423 16.767423 -0.010 60.4509 5.41458 0.640671 0.00801126 0.000221728 0.0662487 0.318624 7.31149 23.2974 0.315865 0.0702074 2.10576 89.6
85129.00 2041.55 9.624243 18.550637 -119642.981877 -5.058837 16.927010 0.003 60.4984 5.49239 0.643521 0.0083756 0.000234393 0.0696867 0.325694 7.41129 23.0895 0.311713 0.0711863 2.07809 89.3
84832.10 2041.04 9.753190 19.116864 -120288.992415 -4.875768 17.090192 0.017 60.5459 5.56826 0.646506 0.00875444 0.000247716 0.0732827 0.332939 7.51199 22.8817 0.307592 0.0721801 2.05061 89.0
84535.20 2040.53 9.884522 19.688459 -120967.113509 -4.693228 17.256891 0.030 60.5938 5.64191 0.649631 0.00914824 0.000261721 0.0770421 0.34036 7.61349 22.6743 0.303505 0.0731881 2.02337 88.7
84238.30 2040.01 10.017471 20.262700 -121671.490462 -4.511535 17.425954 0.044 60.6426 5.71269 0.652951 0.00955599 0.000276415 0.0809585 0.347901 7.71475 22.4681 0.299477 0.0742029 1.99651 88.5
83941.40 2039.50 10.153362 20.844340 -122412.301421 -4.330103 17.599382 0.058 60.6917 5.78114 0.656374 0.00998096 0.000291844 0.0850608 0.355669 7.81743 22.2619 0.295469 0.0752377 1.96979 88.2
83644.50 2038.99 10.291414 21.430619 -123183.600877 -4.149253 17.776008 0.071 60.7416 5.84659 0.659955 0.0104222 0.000308017 0.0893433 0.363609 7.9205 22.0565 0.291505 0.0762848 1.94337 87.9
83347.70 2038.48 10.431477 22.021003 -123984.334575 -3.969077 17.955621 0.085 60.7926 5.9088 0.663701 0.0108799 0.000324945 0.0938095 0.371714 8.02377 21.8522 0.287591 0.0773434 1.91727 87.6
83050.90 2037.97 10.573515 22.615428 -124814.120271 -3.789532 18.138163 0.098 60.8449 5.96756 0.667619 0.0113547 0.000342653 0.0984664 0.379984 8.12715 21.649 0.283728 0.078413 1.89152 87.3
82754.10 2037.46 10.717428 23.213585 -125672.196330 -3.610644 18.323494 0.112 60.8985 6.02269 0.671718 0.0118471 0.000361158 0.10332 0.388416 8.23049 21.4471 0.279918 0.0794932 1.86612 87.0
82457.30 2036.95 10.863120 23.815161 -126557.788771 -3.432440 18.511473 0.126 60.9537 6.07401 0.676004 0.0123573 0.000380477 0.108374 0.397006 8.33368 21.2466 0.276164 0.0805833 1.84109 86.7
82160.50 2036.44 11.010493 24.419853 -127470.130407 -3.254945 18.701961 0.139 61.0106 6.12138 0.680486 0.0128857 0.000400628 0.113635 0.405749 8.43656 21.0477 0.272467 0.0816827 1.81645 86.4
81863.70 2035.93 11.159455 25.027372 -128408.479775 -3.078182 18.894826 0.153 61.0693 6.1647 0.685173 0.0134328 0.000421625 0.119108 0.41464 8.53902 20.8504 0.26883 0.0827911 1.7922 86.1
81567.00 2035.42 11.309857 25.637199 -129371.709647 -2.902238 19.089858 0.166 61.1299 6.20386 0.690071 0.0139987 0.000443479 0.124795 0.423671 8.64089 20.6549 0.265255 0.0839073 1.76837 85.8
81270.20 2034.91 11.461747 26.249591 -130360.032229 -2.727002 19.287115 0.180 61.1924 6.23885 0.69519 0.0145842 0.000466222 0.130706 0.432845 8.74218 20.4611 0.26174 0.0850322 1.74493 85.5
80973.50 2034.40 11.614929 26.863834 -131372.016425 -2.552619 19.486327 0.193 61.257 6.26961 0.700537 0.015189 0.000489855 0.136841 0.44215 8.84269 20.2692 0.258288 0.0861643 1.72192 85.2
80676.80 2033.89 11.769410 27.480004 -132407.613575 -2.379036 19.687495 0.207 61.3236 6.29617 0.70612 0.0158139 0.000514405 0.143208 0.451585 8.94239 20.0791 0.254898 0.087304 1.69932 84.9
80380.10 2033.38 11.925143 28.097962 -133466.439377 -2.206260 19.890554 0.220 61.3922 6.31856 0.711947 0.0164591 0.00053989 0.14981 0.461145 9.04121 19.891 0.251569 0.0884513 1.67713 84.6
80083.50 2032.87 12.082030 28.717353 -134547.738071 -2.034358 20.095366 0.234 61.4629 6.33683 0.718024 0.0171246 0.000566323 0.156651 0.470823 9.13906 19.7048 0.248303 0.0896054 1.65535 84.3
79786.80 2032.36 12.240180 29.338623 -135652.262001 -1.863202 20.302077 0.247 61.5356 6.35108 0.724359 0.0178112 0.000593743 0.16374 0.480625 9.23598 19.5203 0.245094 0.0907675 1.63396 84.0
79490.20 2031.85 12.399452 29.961245 -136778.982949 -1.692915 20.510495 0.261 61.6103 6.36139 0.730958 0.0185188 0.000622154 0.171077 0.490538 9.33186 19.3379 0.241946 0.0919367 1.61297 83.6
79193.60 2031.33 12.559173 30.582908 -137922.379306 -1.523733 20.719592 0.274 61.6873 6.36776 0.737879 0.0192451 0.000651573 0.178644 0.500492 9.42581 19.1577 0.238869 0.0931056 1.59246 83.3
78897.00 2030.82 12.720846 31.208828 -139094.594993 -1.355022 20.931634 0.287 61.7658 6.37055 0.745025 0.0199957 0.000682063 0.186495 0.510629 9.51964 18.9788 0.235833 0.0942905 1.57222 83.0
78600.40 2030.31 12.883752 31.836508 -140289.846380 -1.187077 21.145534 0.301 61.8461 6.36978 0.752455 0.0207684 0.000713635 0.19461 0.520877 9.61245 18.8016 0.232851 0.0954837 1.55234 82.7
78303.80 2029.80 13.047928 32.466069 -141508.443270 -1.019875 21.361344 0.314 61.928 6.36558 0.760174 0.0215633 0.000746319 0.202995 0.531234 9.70422 18.6261 0.229922 0.0966855 1.53281 82.3
78007.20 2029.29 13.213420 33.097658 -142750.780938 -0.853394 21.579131 0.328 62.0116 6.35808 0.768186 0.0223808 0.000780147 0.211653 0.5417 9.79499 18.4521 0.227042 0.0978963 1.51361 82.0
77710.70 2028.78 13.380215 33.731193 -144016.798736 -0.687668 21.798879 0.341 62.0967 6.34744 0.776495 0.0232207 0.000815141 0.220587 0.55227 9.88471 18.2797 0.224212 0.0991161 1.49474 81.7
77414.20 2028.27 13.548442 34.367131 -145307.564751 -0.522606 22.020771 0.354 62.1832 6.3338 0.785108 0.0240836 0.000851349 0.229805 0.562949 9.97347 18.1088 0.221428 0.100346 1.47618 81.4
77117.70 2027.76 13.718174 35.005695 -146623.697161 -0.358175 22.244906 0.368 62.271 6.31731 0.79403 0.0249697 0.000888808 0.23931 0.573738 10.0613 17.9393 0.218688 0.101586 1.45792 81.0
76821.20 2027.24 13.888740 35.644567 -147959.731057 -0.194649 22.470271 0.381 62.3604 6.2981 0.803316 0.0258759 0.000927539 0.249077 0.584559 10.1473 17.7715 0.216002 0.102828 1.44002 80.7
76524.70 2026.73 14.061715 36.289130 -149328.680068 -0.031375 22.699234 0.394 62.4507 6.27632 0.81287 0.0268092 0.000967624 0.259172 0.595572 10.2333 17.6046 0.213345 0.10409 1.4223 80.4
76228.30 2026.22 14.236371 36.936837 -150724.633510 0.131317 22.930701 0.408 62.5419 6.25211 0.822744 0.027766 0.00100907 0.269566 0.606694 10.3185 17.4388 0.210728 0.105363 1.40485 80.0
75931.80 2025.71 14.412945 37.588507 -152149.596344 0.293589 23.165001 0.421 62.6341 6.22558 0.832948 0.0287475 0.00105196 0.280272 0.617939 10.4028 17.2741 0.208146 0.106649 1.38764 79.7
75635.40 2025.20 14.591392 38.243919 -153603.293319 0.455361 23.402080 0.435 62.7272 6.19686 0.843481 0.0297529 0.0010963 0.291285 0.629298 10.4864 17.1104 0.205601 0.107948 1.37067 79.4
75339.00 2024.69 14.771886 38.903657 -155087.253576 0.616739 23.642185 0.448 62.821 6.16608 0.85435 0.030783 0.00114216 0.302615 0.64078 10.5692 16.9478 0.203088 0.10926 1.35392 79.0
75042.60 2024.17 14.953779 39.565473 -156596.143279 0.777456 23.884327 0.461 62.9158 6.1334 0.865609 0.0318337 0.00118958 0.314228 0.652303 10.6505 16.7865 0.200618 0.110577 1.33745 78.7
74746.20 2023.66 15.138694 40.234865 -158143.612371 0.938179 24.130949 0.475 63.0109 6.09882 0.877164 0.0329134 0.00123864 0.326204 0.664039 10.7319 16.6256 0.198168 0.111917 1.32112 78.4
74449.80 2023.15 15.325990 40.909615 -159724.452614 1.098648 24.381078 0.488 63.1066 6.06249 0.889068 0.0340184 0.00128939 0.338512 0.675907 10.8127 16.4654 0.195746 0.113273 1.30497 78.1
74153.50 2022.64 15.515711 41.589813 -161339.126853 1.258851 24.634781 0.502 63.2026 6.02453 0.901323 0.0351483 0.00134186 0.35115 0.687907 10.8929 16.306 0.193352 0.114643 1.28902 77.7
73857.10 2022.13 15.708135 42.276386 -162990.114869 1.418958 24.892446 0.515 63.2991 5.985 0.91394 0.0363042 0.00139616 0.364133 0.700054 10.9726 16.1473 0.190984 0.11603 1.27323 77.4
73560.80 2021.62 15.903232 42.969169 -164677.291754 1.578903 25.154043 0.529 63.3958 5.94401 0.926917 0.0374854 0.0014523 0.377456 0.71234 11.0517 15.9892 0.188641 0.117433 1.25761 77.1
73264.50 2021.10 16.100431 43.666193 -166395.954846 1.738482 25.418690 0.542 63.4931 5.90174 0.940311 0.0386877 0.00151036 0.391081 0.724685 11.1294 15.8321 0.18633 0.118844 1.2422 76.8
72968.30 2020.59 16.301341 44.372855 -168159.871544 1.898323 25.688818 0.556 63.5901 5.85808 0.954024 0.0399202 0.00157041 0.4051 0.737268 11.2075 15.6752 0.184034 0.120282 1.22689 76.4
72672.00 2020.08 16.505489 45.087516 -169965.249921 2.058285 25.963681 0.569 63.6874 5.81317 0.968117 0.0411793 0.00163256 0.419482 0.750017 11.2852 15.5187 0.181758 0.121738 1.21172 76.1
72375.70 2019.57 16.712938 45.810329 -171812.788807 2.218369 26.243375 0.583 63.7846 5.76709 0.982593 0.0424648 0.00169685 0.434226 0.76293 11.3624 15.3626 0.179502 0.123214 1.19668 75.8
72079.50 2019.06 16.923750 46.541445 -173703.177435 2.378572 26.527998 0.597 63.8818 5.71993 0.997451 0.0437762 0.00176335 0.449331 0.776008 11.4393 15.2069 0.177266 0.124708 1.18177 75.5
71783.30 2018.54 17.137349 47.278881 -175631.677853 2.538690 26.816658 0.610 63.9792 5.67185 1.01275 0.0451087 0.00183211 0.464753 0.789166 11.5149 15.0521 0.175056 0.126212 1.16704 75.2
71487.10 2018.03 17.355511 48.028555 -177613.723053 2.699438 27.112026 0.624 64.0762 5.62267 1.0284 0.0464731 0.00190329 0.480601 0.8026 11.5911 14.8971 0.172856 0.127747 1.15237 74.8
71190.90 2017.52 17.577595 48.788246 -179644.039290 2.860557 27.413121 0.638 64.1731 5.57256 1.04444 0.0478643 0.00197694 0.496829 0.816223 11.6669 14.7424 0.170672 0.129302 1.13781 74.5
70894.70 2017.01 17.803768 49.558458 -181724.313095 3.022112 27.720189 0.652 64.2697 5.52158 1.06089 0.0492824 0.00205314 0.51344 0.830039 11.7424 14.5879 0.168504 0.130879 1.12336 74.2
70598.60 2016.49 18.033266 50.336565 -183848.098530 3.183775 28.032076 0.665 64.3662 5.46992 1.0778 0.0507207 0.00213193 0.530371 0.84395 11.8168 14.4342 0.166359 0.132468 1.10906 73.9
70302.40 2015.98 18.268139 51.129371 -186033.492161 3.346413 28.351841 0.679 64.4622 5.41733 1.09508 0.0521925 0.00221353 0.547758 0.858174 11.8918 14.2801 0.16422 0.13409 1.0948 73.6
70006.30 2015.47 18.507550 51.933995 -188273.414728 3.509641 28.678230 0.693 64.5578 5.36401 1.11278 0.0536906 0.00229794 0.565532 0.872607 11.9665 14.1262 0.162096 0.135735 1.08064 73.3
69710.20 2014.96 18.751786 52.751328 -190570.694552 3.673598 29.011655 0.707 64.6531 5.31 1.1309 0.0552159 0.0023853 0.583705 0.887262 12.041 13.9725 0.159985 0.137403 1.06657 73.0
69414.10 2014.44 19.000157 53.579011 -192919.592628 3.838010 29.351068 0.721 64.7481 5.25547 1.1495 0.0567616 0.00247567 0.602213 0.902042 12.1145 13.8193 0.157893 0.139086 1.05262 72.7
