Title: Ringwood 1991 pyrolite (i.e. parent of MORB+peridotite)

liquid_0 thermodynamic data and composition:
Pressure Temperature mass S H V Cp viscosity SiO2 TiO2 Al2O3 Fe2O3 Cr2O3 FeO MgO CaO Na2O Mg#
99995.30 2017.92 0.425054 1.947911 -2247.165130 0.149092 0.645021 -0.387 53.7384 0.386615 0.0687227 0.0116146 5.45259e-06 0.056576 6.92317 2.46802 36.3469 99.5
99697.60 2017.42 0.425444 1.944275 -2265.729859 0.149123 0.645732 -0.384 53.7668 0.392077 0.0709527 0.0122371 5.7138e-06 0.059984 6.9724 2.48349 36.2421 99.5
99399.90 2016.92 0.425833 1.940662 -2284.247981 0.149156 0.646443 -0.381 53.7948 0.397577 0.0732472 0.0128888 5.98663e-06 0.0635746 7.02165 2.49901 36.1372 99.5
99102.20 2016.43 0.426261 1.937242 -2302.932334 0.149201 0.647215 -0.378 53.8223 0.403154 0.0756038 0.0135718 6.27168e-06 0.0673628 7.07149 2.51488 36.0316 99.5
98804.60 2015.93 0.426651 1.933674 -2321.350081 0.149236 0.647926 -0.375 53.8498 0.408728 0.0780313 0.0142848 6.56911e-06 0.0713425 7.12075 2.5305 35.9265 99.4
98506.90 2015.43 0.427042 1.930130 -2339.731364 0.149272 0.648640 -0.372 53.8771 0.414344 0.0805291 0.0150306 6.87975e-06 0.0755321 7.17006 2.54619 35.8212 99.4
98209.30 2014.94 0.427471 1.926781 -2358.276573 0.149321 0.649414 -0.369 53.9036 0.420034 0.0830929 0.0158111 7.20406e-06 0.0799457 7.21993 2.56222 35.7153 99.4
97911.70 2014.44 0.427863 1.923284 -2376.558476 0.149359 0.650129 -0.366 53.9302 0.425723 0.0857338 0.0166254 7.54242e-06 0.0845786 7.26925 2.57801 35.6098 99.4
97614.10 2013.95 0.428294 1.919984 -2395.019381 0.149411 0.650906 -0.363 53.9562 0.43149 0.0884449 0.0174772 7.89569e-06 0.0894573 7.31916 2.59415 35.5036 99.3
97316.50 2013.45 0.428687 1.916537 -2413.212809 0.149452 0.651623 -0.360 53.9821 0.437253 0.0912369 0.0183652 8.26417e-06 0.0945746 7.36852 2.61005 35.3979 99.3
97018.90 2012.95 0.429081 1.913116 -2431.361307 0.149494 0.652342 -0.357 54.0077 0.443054 0.0941074 0.019292 8.64861e-06 0.0999492 7.41788 2.62601 35.292 99.2
96721.40 2012.46 0.429515 1.909892 -2449.687172 0.149550 0.653124 -0.354 54.0326 0.448931 0.0970522 0.02026 9.04972e-06 0.105601 7.46782 2.64232 35.1854 99.2
96423.80 2011.96 0.429912 1.906524 -2467.749462 0.149595 0.653846 -0.351 54.0575 0.454805 0.100085 0.0212685 9.46804e-06 0.111523 7.51722 2.6584 35.0792 99.2
96126.30 2011.46 0.430309 1.903180 -2485.758128 0.149641 0.654570 -0.348 54.082 0.460713 0.103201 0.0223195 9.90416e-06 0.117735 7.56661 2.67452 34.9728 99.1
95828.80 2010.97 0.430747 1.900038 -2503.962978 0.149702 0.655358 -0.345 54.1058 0.4667 0.106398 0.0234165 1.03592e-05 0.124261 7.6166 2.69101 34.8658 99.1
95531.30 2010.47 0.431148 1.896751 -2521.888514 0.149751 0.656087 -0.342 54.1296 0.47268 0.109688 0.0245576 1.08334e-05 0.13109 7.66601 2.70725 34.7592 99.0
95233.80 2009.97 0.431550 1.893491 -2539.772192 0.149802 0.656818 -0.340 54.1529 0.478695 0.113068 0.025746 1.13277e-05 0.138246 7.71543 2.72356 34.6523 99.0
94936.30 2009.48 0.431994 1.890437 -2557.861584 0.149867 0.657615 -0.337 54.1754 0.484791 0.116535 0.026985 1.18433e-05 0.145757 7.76547 2.74023 34.5448 99.0
94638.90 2008.98 0.432400 1.887235 -2575.656117 0.149922 0.658351 -0.334 54.1979 0.490875 0.120101 0.028272 1.23803e-05 0.153604 7.8149 2.75664 34.4377 98.9
94341.50 2008.48 0.432808 1.884063 -2593.411058 0.149977 0.659091 -0.331 54.22 0.496993 0.123763 0.0296107 1.29398e-05 0.161818 7.86433 2.77312 34.3304 98.9
94044.10 2007.99 0.433259 1.881100 -2611.381890 0.150048 0.659899 -0.328 54.2412 0.503193 0.127518 0.031005 1.35232e-05 0.170429 7.91439 2.78997 34.2223 98.8
93746.70 2007.49 0.433672 1.877991 -2629.063021 0.150108 0.660646 -0.325 54.2623 0.509381 0.13138 0.0324521 1.41307e-05 0.179419 7.96385 2.80657 34.1146 98.8
93449.30 2006.99 0.434088 1.874916 -2646.707485 0.150169 0.661397 -0.322 54.2829 0.515603 0.135345 0.0339558 1.47636e-05 0.188819 8.01332 2.82323 34.0068 98.7
93151.90 2006.50 0.434548 1.872051 -2664.578871 0.150247 0.662219 -0.319 54.3027 0.521907 0.13941 0.0355203 1.54232e-05 0.198662 8.06342 2.84027 33.8981 98.6
92854.60 2006.00 0.434970 1.869041 -2682.145735 0.150312 0.662979 -0.316 54.3223 0.528195 0.143587 0.0371415 1.61096e-05 0.208923 8.11289 2.85705 33.7899 98.6
92557.20 2005.50 0.435396 1.866068 -2699.689870 0.150380 0.663746 -0.313 54.3415 0.534519 0.147876 0.038825 1.68247e-05 0.219643 8.1624 2.8739 33.6813 98.5
92259.90 2005.00 0.435825 1.863129 -2717.191878 0.150450 0.664517 -0.311 54.3601 0.540873 0.152277 0.040571 1.75691e-05 0.230831 8.2119 2.89081 33.5727 98.4
91962.60 2004.51 0.436300 1.860406 -2734.936835 0.150536 0.665360 -0.308 54.3777 0.547311 0.156785 0.0423849 1.83447e-05 0.24253 8.26203 2.90811 33.4631 98.4
91665.30 2004.01 0.436738 1.857542 -2752.382506 0.150611 0.666144 -0.305 54.3952 0.553732 0.161418 0.0442626 1.91517e-05 0.254712 8.31156 2.92514 33.354 98.3
91368.00 2003.51 0.437180 1.854716 -2769.801065 0.150688 0.666934 -0.302 54.4121 0.560186 0.166172 0.0462088 1.99917e-05 0.267415 8.36109 2.94225 33.2446 98.2
91070.80 2003.02 0.437670 1.852109 -2787.465248 0.150782 0.667798 -0.299 54.428 0.566722 0.171038 0.0482276 2.08665e-05 0.28068 8.41125 2.95974 33.1343 98.2
90773.50 2002.52 0.438122 1.849364 -2804.837676 0.150865 0.668604 -0.296 54.4437 0.573242 0.176039 0.0503159 2.17766e-05 0.294482 8.46082 2.97698 33.0244 98.1
90476.30 2002.02 0.438579 1.846659 -2822.177879 0.150950 0.669416 -0.294 54.4588 0.579792 0.181167 0.052477 2.27235e-05 0.308853 8.51038 2.99428 32.9143 98.0
90179.10 2001.52 0.439042 1.843997 -2839.498496 0.151039 0.670237 -0.291 54.4732 0.586374 0.186425 0.0547135 2.37088e-05 0.323819 8.55995 3.01164 32.8038 97.9
89881.90 2001.03 0.439556 1.841562 -2857.094696 0.151144 0.671137 -0.288 54.4866 0.593042 0.191807 0.0570311 2.47349e-05 0.33943 8.61019 3.02942 32.6925 97.8
89584.70 2000.53 0.440032 1.838989 -2874.385695 0.151239 0.671977 -0.285 54.4997 0.599689 0.197334 0.0594239 2.58017e-05 0.355643 8.6598 3.04692 32.5815 97.7
89287.60 2000.03 0.440514 1.836462 -2891.653176 0.151336 0.672826 -0.282 54.5121 0.606364 0.202998 0.0618965 2.69111e-05 0.372501 8.7094 3.06449 32.4702 97.7
88990.40 1999.53 0.441004 1.833984 -2908.921317 0.151438 0.673687 -0.280 54.5238 0.613075 0.208805 0.0644526 2.80656e-05 0.390037 8.75905 3.08214 32.3586 97.6
88693.30 1999.03 0.441502 1.831554 -2926.171066 0.151542 0.674558 -0.277 54.5348 0.619814 0.214754 0.067092 2.92661e-05 0.408258 8.8087 3.09986 32.2467 97.5
88396.20 1998.54 0.442052 1.829359 -2943.723908 0.151665 0.675513 -0.274 54.5446 0.626642 0.22084 0.069822 3.0516e-05 0.427233 8.85903 3.11799 32.1338 97.4
88099.10 1998.04 0.442567 1.827032 -2960.970179 0.151777 0.676410 -0.271 54.5541 0.633446 0.227086 0.0726353 3.18148e-05 0.446902 8.90873 3.13586 32.0212 97.3
87802.00 1997.54 0.443090 1.824759 -2978.217793 0.151893 0.677320 -0.269 54.5628 0.640281 0.233484 0.0755381 3.31655e-05 0.467326 8.95845 3.1538 31.9083 97.2
87505.00 1997.04 0.443622 1.822539 -2995.458859 0.152013 0.678242 -0.266 54.5707 0.647145 0.240035 0.0785311 3.45696e-05 0.488519 9.00817 3.17181 31.795 97.0

orthopyroxene_0 thermodynamic data and composition:
Pressure Temperature mass S H V Cp structure formula SiO2 TiO2 Al2O3 Fe2O3 Cr2O3 FeO MgO CaO Na2O
99995.30 2017.92 13.044726 35.422024 -128597.072464 3.959258 16.350148 opx Na0.02Ca0.09Fe''0.12Mg1.73Fe'''0.00Ti0.01Al0.03Si1.98O6 57.5878 0.510683 0.77882 0.176935 0 4.33452 33.7064 2.55325 0.351521
99697.60 2017.42 13.041310 35.414796 -128675.664320 3.958889 16.349084 opx Na0.02Ca0.09Fe''0.12Mg1.73Fe'''0.00Ti0.01Al0.03Si1.98O6 57.5862 0.510115 0.781348 0.177281 0 4.33527 33.7028 2.55531 0.35167
99399.90 2016.92 13.037880 35.407528 -128754.071901 3.958515 16.347998 opx Na0.02Ca0.09Fe''0.12Mg1.73Fe'''0.00Ti0.01Al0.03Si1.98O6 57.5846 0.509548 0.783902 0.17763 0 4.33602 33.6991 2.55737 0.35182
99102.20 2016.43 13.034589 35.400709 -128833.637490 3.958186 16.347081 opx Na0.02Ca0.09Fe''0.12Mg1.73Fe'''0.00Ti0.01Al0.03Si1.98O6 57.5829 0.508985 0.78647 0.17798 0 4.33679 33.6954 2.55947 0.351952
98804.60 2015.93 13.031132 35.393357 -128911.636272 3.957803 16.345951 opx Na0.02Ca0.09Fe''0.12Mg1.73Fe'''0.00Ti0.01Al0.03Si1.98O6 57.5813 0.508422 0.789076 0.178336 0 4.33757 33.6917 2.56151 0.352104
98506.90 2015.43 13.027663 35.385972 -128989.505734 3.957416 16.344803 opx Na0.02Ca0.09Fe''0.12Mg1.73Fe'''0.00Ti0.01Al0.03Si1.98O6 57.5796 0.50786 0.791708 0.178697 0 4.33837 33.688 2.56356 0.352257
98209.30 2014.94 13.024333 35.379035 -129068.498825 3.957073 16.343823 opx Na0.02Ca0.09Fe''0.12Mg1.73Fe'''0.00Ti0.01Al0.03Si1.98O6 57.5778 0.507302 0.794355 0.179057 0 4.33918 33.6842 2.56565 0.352393
97911.70 2014.44 13.020838 35.371571 -129145.973245 3.956678 16.342633 opx Na0.02Ca0.09Fe''0.12Mg1.73Fe'''0.00Ti0.01Al0.03Si1.98O6 57.5761 0.506744 0.79704 0.179425 0 4.34 33.6804 2.56769 0.352548
97614.10 2013.95 13.017484 35.364563 -129224.630396 3.956326 16.341614 opx Na0.02Ca0.09Fe''0.12Mg1.73Fe'''0.00Ti0.01Al0.03Si1.98O6 57.5743 0.506189 0.799741 0.179793 0 4.34083 33.6766 2.56977 0.352685
97316.50 2013.45 13.013966 35.357028 -129301.769162 3.955923 16.340385 opx Na0.02Ca0.09Fe''0.12Mg1.73Fe'''0.00Ti0.01Al0.03Si1.98O6 57.5726 0.505634 0.802482 0.180168 0 4.34168 33.6728 2.57181 0.352841
97018.90 2012.95 13.010437 35.349459 -129378.743173 3.955515 16.339137 opx Na0.02Ca0.09Fe''0.12Mg1.73Fe'''0.00Ti0.01Al0.03Si1.98O6 57.5708 0.505081 0.80525 0.180546 0 4.34255 33.669 2.57384 0.352999
96721.40 2012.46 13.007048 35.342345 -129456.868198 3.955152 16.338060 opx Na0.02Ca0.09Fe''0.12Mg1.73Fe'''0.00Ti0.01Al0.03Si1.98O6 57.5689 0.504531 0.808034 0.180925 0 4.34342 33.6651 2.57591 0.353138
96423.80 2011.96 13.003497 35.334711 -129533.525066 3.954737 16.336777 opx Na0.02Ca0.09Fe''0.12Mg1.73Fe'''0.00Ti0.01Al0.03Si1.98O6 57.5671 0.503981 0.810859 0.181311 0 4.34431 33.6612 2.57793 0.353296
96126.30 2011.46 12.999934 35.327041 -129609.978581 3.954318 16.335474 opx Na0.02Ca0.10Fe''0.12Mg1.73Fe'''0.00Ti0.01Al0.03Si1.98O6 57.5652 0.503433 0.813711 0.181701 0 4.34521 33.6573 2.57995 0.353455
95828.80 2010.97 12.996515 35.319834 -129687.650543 3.953944 16.334346 opx Na0.02Ca0.10Fe''0.13Mg1.73Fe'''0.00Ti0.01Al0.03Si1.98O6 57.5633 0.502888 0.816581 0.182092 0 4.34613 33.6534 2.58201 0.353597
95531.30 2010.47 12.992934 35.312105 -129763.808823 3.953518 16.333010 opx Na0.02Ca0.10Fe''0.13Mg1.73Fe'''0.00Ti0.01Al0.03Si1.98O6 57.5614 0.502344 0.819492 0.182489 0 4.34706 33.6495 2.58403 0.353756
95233.80 2009.97 12.989344 35.304348 -129839.824236 3.953089 16.331657 opx Na0.02Ca0.10Fe''0.13Mg1.73Fe'''0.00Ti0.01Al0.03Si1.98O6 57.5594 0.501801 0.822432 0.18289 0 4.348 33.6455 2.58603 0.353916
94936.30 2009.48 12.985898 35.297061 -129917.078903 3.952706 16.330483 opx Na0.02Ca0.10Fe''0.13Mg1.73Fe'''0.00Ti0.01Al0.03Si1.98O6 57.5574 0.501261 0.82539 0.183292 0 4.34895 33.6415 2.58808 0.354059
94638.90 2008.98 12.982290 35.289247 -129992.776132 3.952271 16.329099 opx Na0.02Ca0.10Fe''0.13Mg1.72Fe'''0.00Ti0.01Al0.03Si1.98O6 57.5554 0.500722 0.828389 0.183701 0 4.34992 33.6375 2.59008 0.354219
94341.50 2008.48 12.978675 35.281410 -130068.344330 3.951832 16.327701 opx Na0.02Ca0.10Fe''0.13Mg1.72Fe'''0.00Ti0.01Al0.03Si1.98O6 57.5534 0.500185 0.831419 0.184114 0 4.35091 33.6335 2.59208 0.35438
94044.10 2007.99 12.975206 35.274047 -130145.174859 3.951441 16.326483 opx Na0.02Ca0.10Fe''0.13Mg1.72Fe'''0.00Ti0.01Al0.03Si1.98O6 57.5514 0.499651 0.834468 0.184528 0 4.3519 33.6295 2.59411 0.354523
93746.70 2007.49 12.971577 35.266167 -130220.503423 3.950997 16.325059 opx Na0.02Ca0.10Fe''0.13Mg1.72Fe'''0.00Ti0.01Al0.03Si1.98O6 57.5493 0.499117 0.837559 0.184949 0 4.35291 33.6254 2.5961 0.354684
93449.30 2006.99 12.967942 35.258267 -130295.719028 3.950552 16.323623 opx Na0.02Ca0.10Fe''0.13Mg1.72Fe'''0.00Ti0.01Al0.03Si1.98O6 57.5472 0.498585 0.840682 0.185373 0 4.35394 33.6213 2.59808 0.354845
93151.90 2006.50 12.964457 35.250848 -130372.222572 3.950153 16.322371 opx Na0.02Ca0.10Fe''0.13Mg1.72Fe'''0.00Ti0.01Al0.03Si1.98O6 57.5451 0.498057 0.843825 0.1858 0 4.35497 33.6172 2.60011 0.354987
92854.60 2006.00 12.960811 35.242910 -130447.184475 3.949703 16.320912 opx Na0.02Ca0.10Fe''0.13Mg1.72Fe'''0.00Ti0.01Al0.03Si1.98O6 57.5429 0.497529 0.847011 0.186232 0 4.35602 33.6131 2.60208 0.355148
92557.20 2005.50 12.957162 35.234963 -130522.100663 3.949252 16.319445 opx Na0.02Ca0.10Fe''0.13Mg1.72Fe'''0.00Ti0.01Al0.03Si1.98O6 57.5407 0.497002 0.850229 0.186669 0 4.35708 33.6089 2.60405 0.355307
92259.90 2005.00 12.953509 35.226998 -130596.880463 3.948798 16.317967 opx Na0.02Ca0.10Fe''0.13Mg1.72Fe'''0.00Ti0.01Al0.03Si1.98O6 57.5385 0.496478 0.853479 0.18711 0 4.35816 33.6047 2.60601 0.355467
91962.60 2004.51 12.950008 35.219523 -130672.986704 3.948393 16.316677 opx Na0.02Ca0.10Fe''0.13Mg1.72Fe'''0.00Ti0.01Al0.03Si1.98O6 57.5363 0.495957 0.856752 0.187552 0 4.35925 33.6006 2.60802 0.355608
91665.30 2004.01 12.946351 35.211540 -130747.615792 3.947937 16.315185 opx Na0.02Ca0.10Fe''0.13Mg1.72Fe'''0.00Ti0.01Al0.03Si1.98O6 57.5341 0.495437 0.860068 0.188001 0 4.36035 33.5963 2.60998 0.355767
91368.00 2003.51 12.942692 35.203550 -130822.179445 3.947481 16.313687 opx Na0.02Ca0.10Fe''0.13Mg1.72Fe'''0.00Ti0.01Al0.04Si1.98O6 57.5318 0.494918 0.863418 0.188454 0 4.36147 33.5921 2.61193 0.355924
91070.80 2003.02 12.939187 35.196052 -130898.053228 3.947073 16.312378 opx Na0.02Ca0.10Fe''0.13Mg1.72Fe'''0.00Ti0.01Al0.04Si1.98O6 57.5294 0.494403 0.86679 0.188909 0 4.3626 33.5879 2.61392 0.356063
90773.50 2002.52 12.935529 35.188057 -130972.513748 3.946615 16.310872 opx Na0.02Ca0.10Fe''0.13Mg1.72Fe'''0.00Ti0.01Al0.04Si1.98O6 57.5271 0.493889 0.870208 0.189371 0 4.36374 33.5836 2.61586 0.356219
90476.30 2002.02 12.931871 35.180057 -131046.885227 3.946157 16.309360 opx Na0.02Ca0.10Fe''0.13Mg1.72Fe'''0.00Ti0.01Al0.04Si1.98O6 57.5247 0.493376 0.87366 0.189836 0 4.3649 33.5793 2.61779 0.356375
90179.10 2001.52 12.928214 35.172059 -131121.225703 3.945699 16.307846 opx Na0.02Ca0.10Fe''0.13Mg1.72Fe'''0.00Ti0.01Al0.04Si1.98O6 57.5224 0.492865 0.877147 0.190306 0 4.36607 33.575 2.61972 0.356529
89881.90 2001.03 12.924718 35.164571 -131196.973973 3.945292 16.306530 opx Na0.02Ca0.10Fe''0.13Mg1.72Fe'''0.00Ti0.01Al0.04Si1.98O6 57.5199 0.492358 0.880658 0.190778 0 4.36725 33.5707 2.6217 0.356663
89584.70 2000.53 12.921070 35.156588 -131271.284827 3.944835 16.305017 opx Na0.02Ca0.10Fe''0.13Mg1.72Fe'''0.00Ti0.01Al0.04Si1.98O6 57.5175 0.491852 0.884216 0.191256 0 4.36845 33.5663 2.62362 0.356815
89287.60 2000.03 12.917425 35.148609 -131345.545427 3.944379 16.303504 opx Na0.02Ca0.10Fe''0.13Mg1.72Fe'''0.00Ti0.01Al0.04Si1.98O6 57.515 0.491347 0.887809 0.191739 0 4.36966 33.562 2.62553 0.356965
88990.40 1999.53 12.913788 35.140650 -131419.864823 3.943924 16.301996 opx Na0.02Ca0.10Fe''0.13Mg1.72Fe'''0.00Ti0.01Al0.04Si1.98O6 57.5125 0.490845 0.891439 0.192226 0 4.37089 33.5576 2.62744 0.357113
88693.30 1999.03 12.910156 35.132702 -131494.155839 3.943471 16.300491 opx Na0.02Ca0.10Fe''0.13Mg1.72Fe'''0.00Ti0.01Al0.04Si1.98O6 57.5099 0.490344 0.895105 0.192717 0 4.37213 33.5532 2.62935 0.35726
88396.20 1998.54 12.906691 35.125280 -131569.925458 3.943070 16.299192 opx Na0.02Ca0.10Fe''0.13Mg1.72Fe'''0.01Ti0.01Al0.04Si1.98O6 57.5073 0.489848 0.898798 0.193211 0 4.37338 33.5488 2.6313 0.357387
88099.10 1998.04 12.903078 35.117375 -131644.296967 3.942622 16.297700 opx Na0.02Ca0.10Fe''0.13Mg1.72Fe'''0.01Ti0.01Al0.04Si1.98O6 57.5047 0.489351 0.902538 0.193711 0 4.37464 33.5443 2.63319 0.357531
87802.00 1997.54 12.899475 35.109495 -131718.725643 3.942176 16.296219 opx Na0.02Ca0.10Fe''0.13Mg1.72Fe'''0.01Ti0.01Al0.04Si1.98O6 57.5021 0.488857 0.906316 0.194216 0 4.37592 33.5399 2.63508 0.357672
87505.00 1997.04 12.895883 35.101640 -131793.174943 3.941732 16.294745 opx Na0.02Ca0.10Fe''0.13Mg1.72Fe'''0.01Ti0.01Al0.04Si1.98O6 57.4994 0.488365 0.910132 0.194725 0 4.37721 33.5354 2.63696 0.357811

clinopyroxene_0 thermodynamic data and composition:
Pressure Temperature mass S H V Cp structure formula SiO2 TiO2 Al2O3 Fe2O3 Cr2O3 FeO MgO CaO Na2O
99995.30 2017.92 13.397378 35.141368 -130651.369948 4.048790 15.715491 cpx Na0.07Ca0.63Fe''0.09Mg1.15Fe'''0.01Ti0.03Al0.07Si1.97O6 55.1792 1.00722 1.56024 0.396458 0 2.91999 21.6084 16.3608 0.967736
99697.60 2017.42 13.403221 35.160937 -130822.383574 4.051107 15.726924 cpx Na0.07Ca0.62Fe''0.09Mg1.15Fe'''0.01Ti0.03Al0.07Si1.97O6 55.1795 1.007 1.56516 0.397143 0 2.92186 21.612 16.3479 0.969528
99399.90 2016.92 13.409121 35.180660 -130994.064783 4.053443 15.738429 cpx Na0.07Ca0.62Fe''0.09Mg1.15Fe'''0.01Ti0.03Al0.07Si1.97O6 55.1797 1.00677 1.57011 0.397832 0 2.92374 21.6156 16.3349 0.971324
99102.20 2016.43 13.414911 35.200177 -131164.639681 4.055751 15.749810 cpx Na0.07Ca0.62Fe''0.09Mg1.15Fe'''0.01Ti0.03Al0.07Si1.97O6 55.1799 1.00653 1.57503 0.398506 0 2.92566 21.6193 16.322 0.973064
98804.60 2015.93 13.420927 35.220214 -131337.641151 4.058125 15.761457 cpx Na0.07Ca0.62Fe''0.09Mg1.15Fe'''0.01Ti0.03Al0.07Si1.97O6 55.1801 1.00629 1.58005 0.399201 0 2.92757 21.623 16.3089 0.974865
98506.90 2015.43 13.427000 35.240410 -131511.355298 4.060517 15.773177 cpx Na0.07Ca0.62Fe''0.09Mg1.15Fe'''0.01Ti0.03Al0.07Si1.97O6 55.1803 1.00604 1.5851 0.3999 0 2.92951 21.6266 16.2958 0.976669
98209.30 2014.94 13.432965 35.260400 -131683.940388 4.062881 15.784774 cpx Na0.07Ca0.62Fe''0.09Mg1.15Fe'''0.01Ti0.03Al0.07Si1.97O6 55.1805 1.00577 1.59012 0.400585 0 2.93148 21.6304 16.2827 0.978417
97911.70 2014.44 13.439157 35.280916 -131859.007715 4.065312 15.796640 cpx Na0.07Ca0.62Fe''0.09Mg1.15Fe'''0.01Ti0.03Al0.07Si1.97O6 55.1807 1.00551 1.59524 0.401291 0 2.93345 21.634 16.2695 0.980226
97614.10 2013.95 13.445239 35.301228 -132032.977892 4.067715 15.808384 cpx Na0.07Ca0.62Fe''0.09Mg1.15Fe'''0.01Ti0.03Al0.07Si1.97O6 55.1809 1.00523 1.60032 0.401982 0 2.93545 21.6378 16.2563 0.981979
97316.50 2013.45 13.451550 35.322069 -132209.448656 4.070184 15.820399 cpx Na0.07Ca0.62Fe''0.09Mg1.15Fe'''0.01Ti0.03Al0.07Si1.97O6 55.1811 1.00495 1.60551 0.402695 0 2.93746 21.6415 16.243 0.983792
97018.90 2012.95 13.457921 35.343074 -132386.631160 4.072674 15.832489 cpx Na0.07Ca0.62Fe''0.09Mg1.15Fe'''0.01Ti0.03Al0.07Si1.97O6 55.1812 1.00467 1.61073 0.403411 0 2.93948 21.6452 16.2296 0.985606
96721.40 2012.46 13.464184 35.363877 -132562.691828 4.075135 15.844457 cpx Na0.07Ca0.62Fe''0.09Mg1.15Fe'''0.01Ti0.03Al0.07Si1.97O6 55.1814 1.00436 1.61591 0.404113 0 2.94154 21.6491 16.2163 0.987365
96423.80 2011.96 13.470677 35.385213 -132741.309744 4.077664 15.856699 cpx Na0.07Ca0.62Fe''0.09Mg1.15Fe'''0.01Ti0.03Al0.07Si1.97O6 55.1815 1.00406 1.62121 0.404837 0 2.9436 21.6528 16.2028 0.989183
96126.30 2011.46 13.477231 35.406716 -132920.625361 4.080213 15.869017 cpx Na0.07Ca0.62Fe''0.09Mg1.15Fe'''0.01Ti0.03Al0.07Si1.97O6 55.1816 1.00375 1.62653 0.405563 0 2.94568 21.6565 16.1893 0.991003
95828.80 2010.97 13.483678 35.428019 -133098.852225 4.082733 15.881213 cpx Na0.07Ca0.62Fe''0.09Mg1.15Fe'''0.01Ti0.03Al0.07Si1.97O6 55.1818 1.00343 1.63182 0.406275 0 2.9478 21.6604 16.1758 0.992766
95531.30 2010.47 13.490356 35.449859 -133279.633560 4.085322 15.893686 cpx Na0.07Ca0.62Fe''0.09Mg1.15Fe'''0.01Ti0.03Al0.07Si1.97O6 55.1819 1.00311 1.63722 0.407009 0 2.94992 21.6641 16.1622 0.994587
95233.80 2009.97 13.497096 35.471870 -133461.157167 4.087932 15.906236 cpx Na0.07Ca0.62Fe''0.09Mg1.15Fe'''0.01Ti0.03Al0.07Si1.97O6 55.1819 1.00277 1.64265 0.407745 0 2.95206 21.6679 16.1485 0.99641
94936.30 2009.48 13.503729 35.493681 -133641.594900 4.090513 15.918667 cpx Na0.07Ca0.62Fe''0.09Mg1.15Fe'''0.01Ti0.03Al0.07Si1.97O6 55.182 1.00243 1.64805 0.408468 0 2.95423 21.6718 16.1348 0.998175
94638.90 2008.98 13.510595 35.516033 -133824.582626 4.093163 15.931373 cpx Na0.07Ca0.62Fe''0.09Mg1.15Fe'''0.01Ti0.03Al0.07Si1.97O6 55.1821 1.00208 1.65355 0.409211 0 2.9564 21.6756 16.121 0.999999
94341.50 2008.48 13.517525 35.538558 -134008.326393 4.095834 15.944160 cpx Na0.07Ca0.62Fe''0.09Mg1.15Fe'''0.01Ti0.03Al0.07Si1.97O6 55.1821 1.00172 1.65909 0.409957 0 2.9586 21.6794 16.1072 1.00182
