Title: Allan et al. 1989 (see Ghiorso 1997)

Phase Volumes:
Pressure Temperature mass V liquid_0 garnet_0 clinopyroxene_0 clinopyroxene_1 feldspar_0 leucite_0 spinel_0 whitlockite apatite water coesite 
99995.30 2008.60 100.270035 10.343955 -16.830852 16.907030 7.765307 0.000000 0.000000 0.000000 0.009258 0.054348 0.000000 0.000000 2.438864 
99697.60 2008.11 100.270036 10.567471 -16.602258 16.914898 7.752078 0.000000 0.000000 0.000000 0.009262 0.054338 0.000000 0.000000 2.439153 
99399.90 2007.61 100.270037 10.789184 -16.375367 16.922730 7.738870 0.000000 0.000000 0.000000 0.009265 0.054326 0.000000 0.000000 2.439360 
99102.20 2007.12 100.270037 11.009341 -16.149751 16.930959 7.724915 0.000000 0.000000 0.000000 0.009269 0.054315 0.000000 0.000000 2.439634 
98804.60 2006.63 100.270037 11.227754 -15.925684 16.939371 7.710594 0.000000 0.000000 0.000000 0.009272 0.054303 0.000000 0.000000 2.439897 
98506.90 2006.13 100.270037 11.444463 -15.703207 16.947761 7.696266 0.000000 0.000000 0.000000 0.009276 0.054291 0.000000 0.000000 2.440077 
98209.30 2005.64 100.270036 11.659563 -15.482043 16.956562 7.681166 0.000000 0.000000 0.000000 0.009279 0.054279 0.000000 0.000000 2.440320 
97911.70 2005.15 100.270034 11.873016 -15.262312 16.965566 7.665660 0.000000 0.000000 0.000000 0.009283 0.054266 0.000000 0.000000 2.440552 
97614.10 2004.65 100.270032 12.084714 -15.044213 16.974551 7.650139 0.000000 0.000000 0.000000 0.009286 0.054253 0.000000 0.000000 2.440696 
97316.50 2004.16 100.270029 12.294896 -14.827307 16.983974 7.633796 0.000000 0.000000 0.000000 0.009290 0.054240 0.000000 0.000000 2.440903 
97018.90 2003.66 100.270026 12.503339 -14.612010 16.993386 7.617423 0.000000 0.000000 0.000000 0.009294 0.054227 0.000000 0.000000 2.441019 
96721.40 2003.17 100.270022 12.710209 -14.397952 17.003243 7.600213 0.000000 0.000000 0.000000 0.009297 0.054213 0.000000 0.000000 2.441195 
96423.80 2002.68 100.270018 12.915540 -14.185184 17.013336 7.582532 0.000000 0.000000 0.000000 0.009301 0.054198 0.000000 0.000000 2.441356 
96126.30 2002.18 100.270013 13.119085 -13.974060 17.023423 7.564811 0.000000 0.000000 0.000000 0.009305 0.054183 0.000000 0.000000 2.441421 
95828.80 2001.69 100.270008 13.321149 -13.764054 17.033985 7.546196 0.000000 0.000000 0.000000 0.009309 0.054168 0.000000 0.000000 2.441545 
95531.30 2001.20 100.270001 13.521626 -13.555370 17.044795 7.527088 0.000000 0.000000 0.000000 0.009312 0.054153 0.000000 0.000000 2.441648 
95233.80 2000.70 100.269995 13.720411 -13.348214 17.055619 7.507900 0.000000 0.000000 0.000000 0.009316 0.054137 0.000000 0.000000 2.441654 
94936.30 2000.21 100.269987 13.917737 -13.142129 17.066943 7.487769 0.000000 0.000000 0.000000 0.009320 0.054120 0.000000 0.000000 2.441713 
94638.90 1999.71 100.269979 14.113318 -12.937616 17.078283 7.467555 0.000000 0.000000 0.000000 0.009324 0.054104 0.000000 0.000000 2.441670 
94341.50 1999.22 100.269970 14.307456 -12.734140 17.090140 7.446363 0.000000 0.000000 0.000000 0.009328 0.054086 0.000000 0.000000 2.441679 
94044.10 1998.72 100.269961 14.499933 -12.532134 17.102032 7.425052 0.000000 0.000000 0.000000 0.009331 0.054068 0.000000 0.000000 2.441583 
93746.70 1998.23 100.269950 14.690980 -12.331129 17.114461 7.402728 0.000000 0.000000 0.000000 0.009335 0.054050 0.000000 0.000000 2.441536 
93449.30 1997.74 100.269939 14.880494 -12.131335 17.127188 7.379812 0.000000 0.000000 0.000000 0.009339 0.054031 0.000000 0.000000 2.441459 
93151.90 1997.24 100.269928 15.068371 -11.932964 17.139966 7.356743 0.000000 0.000000 0.000000 0.009343 0.054012 0.000000 0.000000 2.441271 
92854.60 1996.75 100.269915 15.254776 -11.735608 17.153304 7.332616 0.000000 0.000000 0.000000 0.009347 0.053992 0.000000 0.000000 2.441126 
92557.20 1996.25 100.269902 15.439625 -11.539574 17.166714 7.308296 0.000000 0.000000 0.000000 0.009351 0.053971 0.000000 0.000000 2.440867 
92259.90 1995.76 100.269887 15.623017 -11.344515 17.180707 7.282874 0.000000 0.000000 0.000000 0.009355 0.053950 0.000000 0.000000 2.440647 
91962.60 1995.26 100.269872 15.804807 -11.150813 17.194776 7.257249 0.000000 0.000000 0.000000 0.009359 0.053928 0.000000 0.000000 2.440308 
91665.30 1994.77 100.269856 15.985218 -10.957975 17.209460 7.230460 0.000000 0.000000 0.000000 0.009363 0.053905 0.000000 0.000000 2.440005 
91368.00 1994.28 100.269839 16.164151 -10.766217 17.224507 7.202956 0.000000 0.000000 0.000000 0.009367 0.053882 0.000000 0.000000 2.439657 
91070.80 1993.78 100.269821 16.341444 -10.575830 17.239642 7.175223 0.000000 0.000000 0.000000 0.009371 0.053858 0.000000 0.000000 2.439181 
90773.50 1993.29 100.269802 16.517443 -10.386173 17.255441 7.146233 0.000000 0.000000 0.000000 0.009374 0.053833 0.000000 0.000000 2.438735 
90476.30 1992.79 100.269782 16.691821 -10.197847 17.271346 7.116982 0.000000 0.000000 0.000000 0.009378 0.053807 0.000000 0.000000 2.438155 
90179.10 1992.30 100.269761 16.864860 -10.010272 17.287931 7.086438 0.000000 0.000000 0.000000 0.009382 0.053781 0.000000 0.000000 2.437599 
89881.90 1991.80 100.269740 17.036355 -9.823921 17.304650 7.055582 0.000000 0.000000 0.000000 0.009387 0.053754 0.000000 0.000000 2.436904 
89584.70 1991.31 100.269716 17.206525 -9.638271 17.322079 7.023375 0.000000 0.000000 0.000000 0.009391 0.053725 0.000000 0.000000 2.436226 
89287.60 1990.81 100.269692 17.375112 -9.453868 17.339648 6.990838 0.000000 0.000000 0.000000 0.009395 0.053696 0.000000 0.000000 2.435403 
88990.40 1990.32 100.269667 17.542449 -9.270048 17.357970 6.956872 0.000000 0.000000 0.000000 0.009399 0.053666 0.000000 0.000000 2.434590 
88693.30 1989.82 100.269641 17.708219 -9.087431 17.376452 6.922536 0.000000 0.000000 0.000000 0.009403 0.053635 0.000000 0.000000 2.433624 
88396.20 1989.33 100.269613 17.872698 -8.905407 17.395709 6.886726 0.000000 0.000000 0.000000 0.009407 0.053603 0.000000 0.000000 2.432661 
88099.10 1988.83 100.269584 18.035686 -8.724473 17.415158 6.850485 0.000000 0.000000 0.000000 0.009411 0.053569 0.000000 0.000000 2.431537 
87802.00 1988.34 100.269553 18.197399 -8.544075 17.435416 6.812702 0.000000 0.000000 0.000000 0.009415 0.053535 0.000000 0.000000 2.430407 
87505.00 1987.84 100.269522 18.357584 -8.364783 17.455875 6.774466 0.000000 0.000000 0.000000 0.009419 0.053499 0.000000 0.000000 2.429108 
87207.90 1987.35 100.269488 18.516566 -8.185901 17.477192 6.734596 0.000000 0.000000 0.000000 0.009423 0.053462 0.000000 0.000000 2.427794 
86910.90 1986.85 100.269454 18.674038 -8.008072 17.498733 6.694226 0.000000 0.000000 0.000000 0.009427 0.053424 0.000000 0.000000 2.426300 
86613.90 1986.36 100.269418 18.830270 -7.830654 17.521157 6.652171 0.000000 0.000000 0.000000 0.009431 0.053384 0.000000 0.000000 2.424780 
86316.80 1985.86 100.269381 18.985118 -7.654107 17.543854 6.609521 0.000000 0.000000 0.000000 0.009435 0.053343 0.000000 0.000000 2.423072 
86019.90 1985.36 100.269342 19.138534 -7.478317 17.567118 6.565749 0.000000 0.000000 0.000000 0.009439 0.053301 0.000000 0.000000 2.421246 
85722.90 1984.87 100.269301 19.290789 -7.302772 17.591335 6.520151 0.000000 0.000000 0.000000 0.009443 0.053257 0.000000 0.000000 2.419376 
85425.90 1984.37 100.269260 19.441634 -7.128078 17.615848 6.473907 0.000000 0.000000 0.000000 0.009447 0.053211 0.000000 0.000000 2.417299 
85129.00 1983.88 100.269215 19.591230 -6.953686 17.641328 6.425811 0.000000 0.000000 0.000000 0.009451 0.053163 0.000000 0.000000 2.415163 
84832.10 1983.38 100.269170 19.739436 -6.780085 17.667126 6.377019 0.000000 0.000000 0.000000 0.009455 0.053114 0.000000 0.000000 2.412807 
84535.20 1982.89 100.269122 19.886462 -6.606648 17.693942 6.326270 0.000000 0.000000 0.000000 0.009459 0.053063 0.000000 0.000000 2.410377 
84238.30 1982.39 100.269074 20.032117 -6.433943 17.721100 6.274777 0.000000 0.000000 0.000000 0.009462 0.053010 0.000000 0.000000 2.407710 
83941.40 1981.90 100.269022 20.176610 -6.261327 17.749312 6.221249 0.000000 0.000000 0.000000 0.009466 0.052955 0.000000 0.000000 2.404954 
83644.50 1981.40 100.268970 20.319749 -6.089382 17.777887 6.166932 0.000000 0.000000 0.000000 0.009470 0.052898 0.000000 0.000000 2.401944 
83347.70 1980.90 100.268915 20.461594 -5.917831 17.807171 6.111192 0.000000 0.000000 0.000000 0.009474 0.052839 0.000000 0.000000 2.398749 
83050.90 1980.41 100.268858 20.602305 -5.746255 17.837560 6.053310 0.000000 0.000000 0.000000 0.009478 0.052777 0.000000 0.000000 2.395436 
82754.10 1979.91 100.268799 20.741689 -5.575260 17.868332 5.994582 0.000000 0.000000 0.000000 0.009481 0.052713 0.000000 0.000000 2.391841 
82457.30 1979.42 100.268738 20.879957 -5.404165 17.900236 5.933648 0.000000 0.000000 0.000000 0.009485 0.052647 0.000000 0.000000 2.388105 
82160.50 1978.92 100.268675 21.016915 -5.233594 17.932532 5.871843 0.000000 0.000000 0.000000 0.009488 0.052578 0.000000 0.000000 2.384068 
81863.70 1978.42 100.268610 21.152673 -5.063190 17.965595 5.808477 0.000000 0.000000 0.000000 0.009492 0.052507 0.000000 0.000000 2.379792 
81567.00 1977.93 100.268542 21.287291 -4.892643 17.999796 5.742870 0.000000 0.000000 0.000000 0.009495 0.052432 0.000000 0.000000 2.375340 
81270.20 1977.43 100.268473 21.420673 -4.722479 18.034402 5.676346 0.000000 0.000000 0.000000 0.009499 0.052355 0.000000 0.000000 2.370551 
80973.50 1976.94 100.268401 21.552931 -4.552110 18.070147 5.607559 0.000000 0.000000 0.000000 0.009502 0.052275 0.000000 0.000000 2.365558 
80676.80 1976.44 100.268328 21.683921 -4.382146 18.106260 5.537907 0.000000 0.000000 0.000000 0.009505 0.052191 0.000000 0.000000 2.360204 
80380.10 1975.94 100.268252 21.813750 -4.212219 18.143119 5.466689 0.000000 0.000000 0.000000 0.009508 0.052105 0.000000 0.000000 2.354548 
80083.50 1975.45 100.268173 21.942479 -4.042010 18.181091 5.393227 0.000000 0.000000 0.000000 0.009511 0.052015 0.000000 0.000000 2.348643 
79786.80 1974.95 100.268093 22.070005 -3.872101 18.219393 5.318939 0.000000 0.000000 0.000000 0.009514 0.051922 0.000000 0.000000 2.342337 
79490.20 1974.45 100.268011 22.196344 -3.702247 18.258358 5.243204 0.000000 0.000000 0.000000 0.009517 0.051826 0.000000 0.000000 2.335686 
79193.60 1973.96 100.267926 22.321646 -3.532004 18.298388 5.165278 0.000000 0.000000 0.000000 0.009520 0.051726 0.000000 0.000000 2.328739 
78897.00 1973.46 100.267840 22.445718 -3.362115 18.338626 5.086714 0.000000 0.000000 0.000000 0.009522 0.051622 0.000000 0.000000 2.321349 
78600.40 1972.96 100.267752 22.568664 -3.192211 18.379439 5.006828 0.000000 0.000000 0.000000 0.009525 0.051515 0.000000 0.000000 2.313567 
78303.80 1972.47 100.267661 22.690584 -3.021912 18.421194 4.924934 0.000000 0.000000 0.000000 0.009527 0.051404 0.000000 0.000000 2.305438 
78007.20 1971.97 100.267569 22.811288 -2.852000 18.463010 4.842635 0.000000 0.000000 0.000000 0.009529 0.051289 0.000000 0.000000 2.296825 
77710.70 1971.48 100.267475 22.930931 -2.681779 18.505633 4.758545 0.000000 0.000000 0.000000 0.009531 0.051169 0.000000 0.000000 2.287833 
77414.20 1970.98 100.267380 23.049364 -2.511989 18.548192 4.674252 0.000000 0.000000 0.000000 0.009533 0.051047 0.000000 0.000000 2.278329 
77117.70 1970.48 100.267283 23.166687 -2.342267 18.591032 4.589108 0.000000 0.000000 0.000000 0.009535 0.050920 0.000000 0.000000 2.268359 
76821.20 1969.98 100.267186 23.282901 -2.172642 18.634080 4.503231 0.000000 0.000000 0.000000 0.009537 0.050789 0.000000 0.000000 2.257906 
76524.70 1969.49 100.267086 23.398105 -2.002750 18.677666 4.415990 0.000000 0.000000 0.000000 0.009538 0.050653 0.000000 0.000000 2.247008 
76228.30 1968.99 100.266986 23.512068 -1.833487 18.720870 4.329080 0.000000 0.000000 0.000000 0.009539 0.050514 0.000000 0.000000 2.235552 
75931.80 1968.49 100.266886 23.624967 -1.664369 18.764064 4.241790 0.000000 0.000000 0.000000 0.009540 0.050370 0.000000 0.000000 2.223572 
75635.40 1968.00 100.266784 23.736821 -1.495163 18.807517 4.153598 0.000000 0.000000 0.000000 0.009541 0.050221 0.000000 0.000000 2.211106 
75339.00 1967.50 100.266683 23.847479 -1.326648 18.850371 4.066095 0.000000 0.000000 0.000000 0.009542 0.050069 0.000000 0.000000 2.198049 
75042.60 1967.00 100.266581 23.957039 -1.158466 18.892944 3.978668 0.000000 0.000000 0.000000 0.009543 0.049913 0.000000 0.000000 2.184438 
74746.20 1966.51 100.266479 24.065597 -0.990259 18.935537 3.890726 0.000000 0.000000 0.000000 0.009543 0.049751 0.000000 0.000000 2.170298 
74449.80 1966.01 100.266377 24.172968 -0.822863 18.977305 3.803851 0.000000 0.000000 0.000000 0.009544 0.049586 0.000000 0.000000 2.155545 
74153.50 1965.51 100.266276 24.279211 -0.655979 19.018541 3.717474 0.000000 0.000000 0.000000 0.009544 0.049416 0.000000 0.000000 2.140215 
73857.10 1965.01 100.266176 24.384405 -0.489512 19.059216 3.631625 0.000000 0.000000 0.000000 0.009543 0.049242 0.000000 0.000000 2.124289 
73560.80 1964.52 100.266075 24.488570 -0.323226 19.099582 3.545810 0.000000 0.000000 0.000000 0.009543 0.049063 0.000000 0.000000 2.107799 
73264.50 1964.02 100.265976 24.591567 -0.157865 19.138883 3.461453 0.000000 0.000000 0.000000 0.009543 0.048879 0.000000 0.000000 2.090674 
72968.30 1963.52 100.265878 24.693456 0.006882 19.177411 3.377985 0.000000 0.000000 0.000000 0.009542 0.048691 0.000000 0.000000 2.072945 
72672.00 1963.02 100.265781 24.794316 0.171128 19.215156 3.295400 0.000000 0.000000 0.000000 0.009541 0.048499 0.000000 0.000000 2.054593 
72375.70 1962.53 100.265684 24.894206 0.335182 19.252384 3.213162 0.000000 0.000000 0.000000 0.009540 0.048300 0.000000 0.000000 2.035638 
72079.50 1962.03 100.265590 24.992920 0.498219 19.288387 3.132639 0.000000 0.000000 0.000000 0.009539 0.048098 0.000000 0.000000 2.016038 
71783.30 1961.53 100.265497 25.090593 0.660688 19.323488 3.053185 0.000000 0.000000 0.000000 0.009537 0.047891 0.000000 0.000000 1.995805 
71487.10 1961.03 100.265406 25.187232 0.822598 19.357662 2.974828 0.000000 0.000000 0.000000 0.009536 0.047678 0.000000 0.000000 1.974930 
71190.90 1960.54 100.265315 25.282933 0.984333 19.391184 2.897002 0.000000 0.000000 0.000000 0.009534 0.047459 0.000000 0.000000 1.953421 
70894.70 1960.04 100.265226 25.377534 1.145175 19.423450 2.820896 0.000000 0.000000 0.000000 0.009532 0.047236 0.000000 0.000000 1.931245 
70598.60 1959.54 100.265140 25.471099 1.305462 19.454734 2.745951 0.000000 0.000000 0.000000 0.009530 0.047007 0.000000 0.000000 1.908416 
70302.40 1959.04 100.265055 25.563706 1.465343 19.485064 2.672088 0.000000 0.000000 0.000000 0.009527 0.046772 0.000000 0.000000 1.884910 
70006.30 1958.55 100.264971 25.655383 1.625093 19.514669 2.598826 0.000000 0.000000 0.000000 0.009524 0.046530 0.000000 0.000000 1.860741 
69710.20 1958.05 100.264889 25.746010 1.784094 19.543035 2.527196 0.000000 0.000000 0.000000 0.009521 0.046283 0.000000 0.000000 1.835880 
69414.10 1957.55 100.264810 25.835683 1.942750 19.570434 2.456625 0.000000 0.000000 0.000000 0.009518 0.046030 0.000000 0.000000 1.810325 
69118.00 1957.05 100.264732 25.924414 2.101110 19.596873 2.387083 0.000000 0.000000 0.000000 0.009515 0.045770 0.000000 0.000000 1.784064 
68822.00 1956.55 100.264656 26.012186 2.259165 19.622345 2.318566 0.000000 0.000000 0.000000 0.009511 0.045503 0.000000 0.000000 1.757095 
68525.90 1956.05 100.264581 26.099075 2.417089 19.646885 2.250977 0.000000 0.000000 0.000000 0.009507 0.045229 0.000000 0.000000 1.729388 
68229.90 1955.56 100.264508 26.185114 2.575168 19.670697 2.183858 0.000000 0.000000 0.000000 0.009503 0.044946 0.000000 0.000000 1.700941 
67933.90 1955.06 100.264437 26.270187 2.732831 19.693358 2.118100 0.000000 0.000000 0.000000 0.009498 0.044657 0.000000 0.000000 1.671742 
67637.90 1954.56 100.264368 26.354390 2.890488 19.715105 2.053174 0.000000 0.000000 0.000000 0.009493 0.044360 0.000000 0.000000 1.641771 
67341.90 1954.06 100.264301 26.437738 3.048207 19.735946 1.989032 0.000000 0.000000 0.000000 0.009488 0.044054 0.000000 0.000000 1.611010 
67046.00 1953.56 100.264236 26.520217 3.206000 19.755884 1.925658 0.000000 0.000000 0.000000 0.009483 0.043739 0.000000 0.000000 1.579452 
66750.00 1953.07 100.264171 26.601980 3.364401 19.775138 1.862507 0.000000 0.000000 0.000000 0.009477 0.043414 0.000000 0.000000 1.547043 
66454.10 1952.57 100.264109 26.682827 3.522682 19.793311 1.800472 0.000000 0.000000 0.000000 0.009471 0.043082 0.000000 0.000000 1.513810 
66158.20 1952.07 100.264049 26.762884 3.681324 19.810620 1.739028 0.000000 0.000000 0.000000 0.009464 0.042739 0.000000 0.000000 1.479709 
65862.30 1951.57 100.263991 26.842166 3.840410 19.827070 1.678128 0.000000 0.000000 0.000000 0.009457 0.042385 0.000000 0.000000 1.444715 
65566.40 1951.07 100.263934 26.920690 4.000025 19.842671 1.617721 0.000000 0.000000 0.000000 0.009449 0.042021 0.000000 0.000000 1.408803 
65270.50 1950.57 100.263879 26.998475 4.160256 19.857427 1.557758 0.000000 0.000000 0.000000 0.009441 0.041646 0.000000 0.000000 1.371947 
64974.70 1950.07 100.263826 27.075510 4.321134 19.871336 1.498215 0.000000 0.000000 0.000000 0.009433 0.041259 0.000000 0.000000 1.334132 
64678.90 1949.57 100.263774 27.151841 4.482815 19.884411 1.439017 0.000000 0.000000 0.000000 0.009424 0.040860 0.000000 0.000000 1.295314 
64383.10 1949.08 100.263724 27.227566 4.645747 19.896807 1.379716 0.000000 0.000000 0.000000 0.009414 0.040446 0.000000 0.000000 1.255435 
64087.30 1948.58 100.263676 27.302546 4.809334 19.908215 1.321058 0.000000 0.000000 0.000000 0.009404 0.040021 0.000000 0.000000 1.214514 
63791.50 1948.08 100.263630 27.376881 4.974030 19.918793 1.262594 0.000000 0.000000 0.000000 0.009394 0.039582 0.000000 0.000000 1.172489 
63495.70 1947.58 100.263585 27.450588 5.139944 19.928539 1.204273 0.000000 0.000000 0.000000 0.009382 0.039127 0.000000 0.000000 1.129322 
63200.00 1947.08 100.263542 27.523664 5.307131 19.937446 1.146071 0.000000 0.000000 0.000000 0.009370 0.038658 0.000000 0.000000 1.084989 
62904.20 1946.58 100.263501 27.596182 5.475832 19.945520 1.087885 0.000000 0.000000 0.000000 0.009358 0.038173 0.000000 0.000000 1.039415 
62608.50 1946.08 100.263462 27.668112 5.646048 19.952744 1.029716 0.000000 0.000000 0.000000 0.009344 0.037671 0.000000 0.000000 0.992588 
62312.80 1945.58 100.263425 27.739501 5.817970 19.959118 0.971488 0.000000 0.000000 0.000000 0.009330 0.037151 0.000000 0.000000 0.944444 
62017.10 1945.08 100.263389 27.810374 5.991734 19.964632 0.913148 0.000000 0.000000 0.000000 0.009315 0.036613 0.000000 0.000000 0.894933 
61721.50 1944.58 100.263356 27.880729 6.167414 19.969271 0.854671 0.000000 0.000000 0.000000 0.009299 0.036055 0.000000 0.000000 0.844018 
61425.80 1944.09 100.263324 27.950722 6.345681 19.973149 0.795576 0.000000 0.000000 0.000000 0.009282 0.035475 0.000000 0.000000 0.791558 
61130.20 1943.59 100.263294 28.020167 6.525782 19.976005 0.736614 0.000000 0.000000 0.000000 0.009264 0.034876 0.000000 0.000000 0.737627 
60834.50 1943.09 100.263266 28.089221 6.708398 19.977949 0.677300 0.000000 0.000000 0.000000 0.009245 0.034255 0.000000 0.000000 0.682075 
60538.90 1942.59 100.263240 28.157863 6.893562 19.978958 0.617633 0.000000 0.000000 0.000000 0.009225 0.033610 0.000000 0.000000 0.624874 
60243.40 1942.09 100.263217 28.226120 7.081450 19.979013 0.557557 0.000000 0.000000 0.000000 0.009203 0.032941 0.000000 0.000000 0.565956 
59947.80 1941.59 100.263195 28.294072 7.272388 19.978095 0.496961 0.000000 0.000000 0.000000 0.009181 0.032245 0.000000 0.000000 0.505202 
59652.20 1941.09 100.263176 28.361726 7.466505 19.976177 0.435811 0.000000 0.000000 0.000000 0.009156 0.031523 0.000000 0.000000 0.442554 
59356.70 1940.59 100.263159 28.429088 7.663930 19.973230 0.374076 0.000000 0.000000 0.000000 0.009131 0.030772 0.000000 0.000000 0.377949 
59061.20 1940.09 100.263145 28.496217 7.864955 19.969227 0.311665 0.000000 0.000000 0.000000 0.009104 0.029990 0.000000 0.000000 0.311277 
58765.70 1939.59 100.263133 28.563149 8.069806 19.964134 0.248516 0.000000 0.000000 0.000000 0.009075 0.029177 0.000000 0.000000 0.242441 
58470.20 1939.09 100.263123 28.629918 8.278725 19.957916 0.184561 0.000000 0.000000 0.000000 0.009044 0.028331 0.000000 0.000000 0.171342 
