Title: Allan et al. 1989 (see Ghiorso 1997)

Phase Masses:
Pressure Temperature mass liquid_0 garnet_0 clinopyroxene_0 clinopyroxene_1 hornblende_0 biotite_0 feldspar_0 leucite_0 spinel_0 whitlockite apatite water coesite 
99905.30 1919.53 100.270480 1.385200 59.661224 32.701458 0.000000 0.000000 0.000000 0.000000 0.000000 0.045331 0.173773 0.000000 0.000000 6.303495 
99737.20 1919.30 100.270492 1.391731 59.662542 32.693802 0.000000 0.000000 0.000000 0.000000 0.000000 0.045337 0.173764 0.000000 0.000000 6.303315 
99569.10 1919.08 100.270503 1.398425 59.664094 32.685693 0.000000 0.000000 0.000000 0.000000 0.000000 0.045344 0.173755 0.000000 0.000000 6.303192 
99401.10 1918.86 100.270515 1.405197 59.665674 32.677496 0.000000 0.000000 0.000000 0.000000 0.000000 0.045351 0.173746 0.000000 0.000000 6.303050 
99233.00 1918.64 100.270527 1.412059 59.667291 32.669191 0.000000 0.000000 0.000000 0.000000 0.000000 0.045358 0.173737 0.000000 0.000000 6.302890 
99065.00 1918.42 100.270538 1.419002 59.668938 32.660794 0.000000 0.000000 0.000000 0.000000 0.000000 0.045365 0.173728 0.000000 0.000000 6.302711 
98896.90 1918.20 100.270550 1.426038 59.670625 32.652284 0.000000 0.000000 0.000000 0.000000 0.000000 0.045372 0.173719 0.000000 0.000000 6.302513 
98728.90 1917.97 100.270562 1.433073 59.672136 32.644046 0.000000 0.000000 0.000000 0.000000 0.000000 0.045379 0.173710 0.000000 0.000000 6.302218 
98560.80 1917.75 100.270574 1.440287 59.673895 32.635324 0.000000 0.000000 0.000000 0.000000 0.000000 0.045386 0.173700 0.000000 0.000000 6.301981 
98392.80 1917.53 100.270585 1.447587 59.675689 32.626502 0.000000 0.000000 0.000000 0.000000 0.000000 0.045393 0.173691 0.000000 0.000000 6.301724 
98224.70 1917.31 100.270597 1.454985 59.677527 32.617557 0.000000 0.000000 0.000000 0.000000 0.000000 0.045400 0.173681 0.000000 0.000000 6.301447 
98056.70 1917.09 100.270608 1.462473 59.679401 32.608508 0.000000 0.000000 0.000000 0.000000 0.000000 0.045407 0.173671 0.000000 0.000000 6.301148 
97888.70 1916.86 100.270620 1.469969 59.681107 32.599716 0.000000 0.000000 0.000000 0.000000 0.000000 0.045414 0.173662 0.000000 0.000000 6.300753 
97720.60 1916.64 100.270632 1.477655 59.683069 32.590421 0.000000 0.000000 0.000000 0.000000 0.000000 0.045421 0.173652 0.000000 0.000000 6.300414 
97552.60 1916.42 100.270643 1.485434 59.685072 32.581015 0.000000 0.000000 0.000000 0.000000 0.000000 0.045428 0.173642 0.000000 0.000000 6.300052 
97384.60 1916.20 100.270655 1.493313 59.687121 32.571485 0.000000 0.000000 0.000000 0.000000 0.000000 0.045435 0.173631 0.000000 0.000000 6.299670 
97216.60 1915.98 100.270666 1.501294 59.689216 32.561828 0.000000 0.000000 0.000000 0.000000 0.000000 0.045443 0.173621 0.000000 0.000000 6.299265 
97048.60 1915.75 100.270678 1.509289 59.691145 32.552422 0.000000 0.000000 0.000000 0.000000 0.000000 0.045450 0.173611 0.000000 0.000000 6.298761 
96880.50 1915.53 100.270689 1.517484 59.693341 32.542494 0.000000 0.000000 0.000000 0.000000 0.000000 0.045457 0.173600 0.000000 0.000000 6.298313 
96712.50 1915.31 100.270701 1.525780 59.695584 32.532443 0.000000 0.000000 0.000000 0.000000 0.000000 0.045464 0.173589 0.000000 0.000000 6.297841 
96544.50 1915.09 100.270712 1.534185 59.697878 32.522254 0.000000 0.000000 0.000000 0.000000 0.000000 0.045471 0.173579 0.000000 0.000000 6.297346 
96376.50 1914.87 100.270724 1.542699 59.700226 32.511925 0.000000 0.000000 0.000000 0.000000 0.000000 0.045479 0.173568 0.000000 0.000000 6.296827 
96208.50 1914.64 100.270735 1.551233 59.702410 32.501842 0.000000 0.000000 0.000000 0.000000 0.000000 0.045486 0.173557 0.000000 0.000000 6.296207 
96040.50 1914.42 100.270747 1.559973 59.704868 32.491227 0.000000 0.000000 0.000000 0.000000 0.000000 0.045493 0.173546 0.000000 0.000000 6.295640 
95872.50 1914.20 100.270758 1.568828 59.707383 32.480464 0.000000 0.000000 0.000000 0.000000 0.000000 0.045500 0.173534 0.000000 0.000000 6.295049 
95704.60 1913.98 100.270769 1.577793 59.709952 32.469562 0.000000 0.000000 0.000000 0.000000 0.000000 0.045508 0.173523 0.000000 0.000000 6.294432 
95536.60 1913.76 100.270781 1.586885 59.712586 32.458494 0.000000 0.000000 0.000000 0.000000 0.000000 0.045515 0.173511 0.000000 0.000000 6.293790 
95368.60 1913.53 100.270792 1.596001 59.715059 32.447665 0.000000 0.000000 0.000000 0.000000 0.000000 0.045523 0.173499 0.000000 0.000000 6.293045 
95200.60 1913.31 100.270803 1.605335 59.717817 32.436283 0.000000 0.000000 0.000000 0.000000 0.000000 0.045530 0.173488 0.000000 0.000000 6.292351 
95032.60 1913.09 100.270814 1.614794 59.720639 32.424738 0.000000 0.000000 0.000000 0.000000 0.000000 0.045537 0.173476 0.000000 0.000000 6.291631 
94864.70 1912.87 100.270826 1.624372 59.723523 32.413039 0.000000 0.000000 0.000000 0.000000 0.000000 0.045545 0.173463 0.000000 0.000000 6.290883 
94696.70 1912.65 100.270837 1.634087 59.726479 32.401160 0.000000 0.000000 0.000000 0.000000 0.000000 0.045552 0.173451 0.000000 0.000000 6.290108 
94528.70 1912.42 100.270848 1.643832 59.729277 32.389513 0.000000 0.000000 0.000000 0.000000 0.000000 0.045560 0.173439 0.000000 0.000000 6.289227 
94360.80 1912.20 100.270859 1.653802 59.732368 32.377302 0.000000 0.000000 0.000000 0.000000 0.000000 0.045567 0.173426 0.000000 0.000000 6.288395 
94192.80 1911.98 100.270870 1.663913 59.735535 32.364899 0.000000 0.000000 0.000000 0.000000 0.000000 0.045575 0.173413 0.000000 0.000000 6.287535 
94024.90 1911.76 100.270881 1.674155 59.738772 32.352328 0.000000 0.000000 0.000000 0.000000 0.000000 0.045582 0.173400 0.000000 0.000000 6.286644 
93856.90 1911.54 100.270892 1.684542 59.742089 32.339559 0.000000 0.000000 0.000000 0.000000 0.000000 0.045590 0.173387 0.000000 0.000000 6.285725 
93689.00 1911.31 100.270903 1.694960 59.745246 32.327030 0.000000 0.000000 0.000000 0.000000 0.000000 0.045597 0.173374 0.000000 0.000000 6.284696 
93521.00 1911.09 100.270914 1.705632 59.748719 32.313884 0.000000 0.000000 0.000000 0.000000 0.000000 0.045605 0.173360 0.000000 0.000000 6.283715 
93353.10 1910.87 100.270925 1.716441 59.752267 32.300556 0.000000 0.000000 0.000000 0.000000 0.000000 0.045613 0.173347 0.000000 0.000000 6.282702 
93185.20 1910.65 100.270936 1.727398 59.755897 32.287031 0.000000 0.000000 0.000000 0.000000 0.000000 0.045620 0.173333 0.000000 0.000000 6.281657 
93017.20 1910.43 100.270947 1.738514 59.759617 32.273290 0.000000 0.000000 0.000000 0.000000 0.000000 0.045628 0.173319 0.000000 0.000000 6.280580 
92849.30 1910.20 100.270958 1.749666 59.763179 32.259781 0.000000 0.000000 0.000000 0.000000 0.000000 0.045636 0.173305 0.000000 0.000000 6.279391 
92681.40 1909.98 100.270968 1.761080 59.767067 32.245642 0.000000 0.000000 0.000000 0.000000 0.000000 0.045643 0.173290 0.000000 0.000000 6.278246 
92513.40 1909.76 100.270979 1.772660 59.771049 32.231276 0.000000 0.000000 0.000000 0.000000 0.000000 0.045651 0.173276 0.000000 0.000000 6.277067 
92345.50 1909.54 100.270990 1.784392 59.775117 32.216708 0.000000 0.000000 0.000000 0.000000 0.000000 0.045659 0.173261 0.000000 0.000000 6.275853 
92177.60 1909.31 100.271000 1.796175 59.779036 32.202352 0.000000 0.000000 0.000000 0.000000 0.000000 0.045667 0.173246 0.000000 0.000000 6.274525 
92009.70 1909.09 100.271011 1.808233 59.783292 32.187342 0.000000 0.000000 0.000000 0.000000 0.000000 0.045674 0.173231 0.000000 0.000000 6.273239 
91841.80 1908.87 100.271022 1.820458 59.787645 32.172105 0.000000 0.000000 0.000000 0.000000 0.000000 0.045682 0.173215 0.000000 0.000000 6.271916 
91673.90 1908.65 100.271032 1.832854 59.792097 32.156636 0.000000 0.000000 0.000000 0.000000 0.000000 0.045690 0.173200 0.000000 0.000000 6.270555 
91506.00 1908.43 100.271043 1.845423 59.796650 32.140931 0.000000 0.000000 0.000000 0.000000 0.000000 0.045698 0.173184 0.000000 0.000000 6.269156 
91338.10 1908.20 100.271053 1.858051 59.801058 32.125431 0.000000 0.000000 0.000000 0.000000 0.000000 0.045706 0.173168 0.000000 0.000000 6.267640 
91170.20 1907.98 100.271063 1.870973 59.805818 32.109245 0.000000 0.000000 0.000000 0.000000 0.000000 0.045714 0.173151 0.000000 0.000000 6.266162 
91002.30 1907.76 100.271074 1.884076 59.810687 32.092811 0.000000 0.000000 0.000000 0.000000 0.000000 0.045722 0.173135 0.000000 0.000000 6.264643 
90834.40 1907.54 100.271084 1.897363 59.815665 32.076125 0.000000 0.000000 0.000000 0.000000 0.000000 0.045729 0.173118 0.000000 0.000000 6.263083 
90666.50 1907.31 100.271094 1.910717 59.820500 32.059636 0.000000 0.000000 0.000000 0.000000 0.000000 0.045737 0.173101 0.000000 0.000000 6.261403 
90498.60 1907.09 100.271104 1.924380 59.825702 32.042434 0.000000 0.000000 0.000000 0.000000 0.000000 0.045745 0.173084 0.000000 0.000000 6.259758 
90330.80 1906.87 100.271114 1.938227 59.831014 32.024984 0.000000 0.000000 0.000000 0.000000 0.000000 0.045753 0.173066 0.000000 0.000000 6.258070 
90162.90 1906.65 100.271124 1.952279 59.836451 32.007247 0.000000 0.000000 0.000000 0.000000 0.000000 0.045761 0.173048 0.000000 0.000000 6.256337 
89995.00 1906.43 100.271134 1.966531 59.842009 31.989236 0.000000 0.000000 0.000000 0.000000 0.000000 0.045769 0.173030 0.000000 0.000000 6.254558 
89827.10 1906.20 100.271144 1.980859 59.847428 31.971412 0.000000 0.000000 0.000000 0.000000 0.000000 0.045777 0.173012 0.000000 0.000000 6.252655 
89659.30 1905.98 100.271154 1.995507 59.853227 31.952857 0.000000 0.000000 0.000000 0.000000 0.000000 0.045785 0.172994 0.000000 0.000000 6.250784 
89491.40 1905.76 100.271164 2.010375 59.859160 31.933997 0.000000 0.000000 0.000000 0.000000 0.000000 0.045793 0.172975 0.000000 0.000000 6.248864 
89323.60 1905.54 100.271173 2.025444 59.865217 31.914860 0.000000 0.000000 0.000000 0.000000 0.000000 0.045801 0.172956 0.000000 0.000000 6.246895 
89155.70 1905.31 100.271183 2.040609 59.871145 31.895885 0.000000 0.000000 0.000000 0.000000 0.000000 0.045809 0.172936 0.000000 0.000000 6.244798 
88987.90 1905.09 100.271192 2.056111 59.877469 31.876150 0.000000 0.000000 0.000000 0.000000 0.000000 0.045817 0.172916 0.000000 0.000000 6.242728 
88820.00 1904.87 100.271202 2.071848 59.883938 31.856087 0.000000 0.000000 0.000000 0.000000 0.000000 0.045826 0.172896 0.000000 0.000000 6.240607 
88652.20 1904.65 100.271211 2.087799 59.890540 31.835729 0.000000 0.000000 0.000000 0.000000 0.000000 0.045834 0.172876 0.000000 0.000000 6.238433 
88484.30 1904.42 100.271221 2.103856 59.897018 31.815523 0.000000 0.000000 0.000000 0.000000 0.000000 0.045842 0.172855 0.000000 0.000000 6.236126 
88316.50 1904.20 100.271230 2.120269 59.903909 31.794525 0.000000 0.000000 0.000000 0.000000 0.000000 0.045850 0.172834 0.000000 0.000000 6.233843 
88148.60 1903.98 100.271239 2.136931 59.910956 31.773177 0.000000 0.000000 0.000000 0.000000 0.000000 0.045858 0.172813 0.000000 0.000000 6.231504 
87980.80 1903.76 100.271248 2.153823 59.918147 31.751512 0.000000 0.000000 0.000000 0.000000 0.000000 0.045866 0.172791 0.000000 0.000000 6.229108 
87813.00 1903.53 100.271257 2.170819 59.925210 31.730009 0.000000 0.000000 0.000000 0.000000 0.000000 0.045874 0.172769 0.000000 0.000000 6.226576 
87645.20 1903.31 100.271266 2.188203 59.932712 31.707660 0.000000 0.000000 0.000000 0.000000 0.000000 0.045883 0.172747 0.000000 0.000000 6.224062 
87477.30 1903.09 100.271275 2.205853 59.940382 31.684937 0.000000 0.000000 0.000000 0.000000 0.000000 0.045891 0.172724 0.000000 0.000000 6.221488 
87309.50 1902.87 100.271284 2.223748 59.948208 31.661875 0.000000 0.000000 0.000000 0.000000 0.000000 0.045899 0.172701 0.000000 0.000000 6.218852 
87141.70 1902.64 100.271292 2.241758 59.955911 31.638964 0.000000 0.000000 0.000000 0.000000 0.000000 0.045907 0.172678 0.000000 0.000000 6.216075 
86973.90 1902.42 100.271301 2.260178 59.964071 31.615169 0.000000 0.000000 0.000000 0.000000 0.000000 0.045915 0.172654 0.000000 0.000000 6.213313 
86806.10 1902.20 100.271310 2.278869 59.972405 31.590997 0.000000 0.000000 0.000000 0.000000 0.000000 0.045924 0.172630 0.000000 0.000000 6.210485 
86638.30 1901.98 100.271318 2.297835 59.980916 31.566441 0.000000 0.000000 0.000000 0.000000 0.000000 0.045932 0.172605 0.000000 0.000000 6.207590 
86470.50 1901.75 100.271326 2.316927 59.989308 31.542024 0.000000 0.000000 0.000000 0.000000 0.000000 0.045940 0.172580 0.000000 0.000000 6.204548 
86302.70 1901.53 100.271334 2.336453 59.998179 31.516683 0.000000 0.000000 0.000000 0.000000 0.000000 0.045948 0.172554 0.000000 0.000000 6.201517 
86134.90 1901.31 100.271343 2.356269 60.007237 31.490938 0.000000 0.000000 0.000000 0.000000 0.000000 0.045957 0.172528 0.000000 0.000000 6.198414 
85967.10 1901.09 100.271351 2.376378 60.016485 31.464781 0.000000 0.000000 0.000000 0.000000 0.000000 0.045965 0.172502 0.000000 0.000000 6.195239 
85799.30 1900.86 100.271359 2.396625 60.025621 31.438752 0.000000 0.000000 0.000000 0.000000 0.000000 0.045973 0.172475 0.000000 0.000000 6.191912 
85631.50 1900.64 100.271366 2.417334 60.035259 31.411755 0.000000 0.000000 0.000000 0.000000 0.000000 0.045981 0.172448 0.000000 0.000000 6.188589 
85463.70 1900.42 100.271374 2.438351 60.045098 31.384326 0.000000 0.000000 0.000000 0.000000 0.000000 0.045990 0.172420 0.000000 0.000000 6.185189 
85296.00 1900.20 100.271382 2.459667 60.055132 31.356480 0.000000 0.000000 0.000000 0.000000 0.000000 0.045998 0.172392 0.000000 0.000000 6.181713 
85128.20 1899.97 100.271389 2.481150 60.065070 31.328723 0.000000 0.000000 0.000000 0.000000 0.000000 0.046006 0.172363 0.000000 0.000000 6.178076 
84960.40 1899.75 100.271396 2.503121 60.075535 31.299954 0.000000 0.000000 0.000000 0.000000 0.000000 0.046014 0.172334 0.000000 0.000000 6.174438 
84792.70 1899.53 100.271404 2.525407 60.086206 31.270745 0.000000 0.000000 0.000000 0.000000 0.000000 0.046023 0.172304 0.000000 0.000000 6.170719 
84624.90 1899.31 100.271411 2.548044 60.097109 31.241039 0.000000 0.000000 0.000000 0.000000 0.000000 0.046031 0.172274 0.000000 0.000000 6.166913 
84457.10 1899.08 100.271418 2.570848 60.107913 31.211432 0.000000 0.000000 0.000000 0.000000 0.000000 0.046039 0.172243 0.000000 0.000000 6.162943 
84289.40 1898.86 100.271425 2.594155 60.119258 31.180787 0.000000 0.000000 0.000000 0.000000 0.000000 0.046047 0.172212 0.000000 0.000000 6.158966 
84121.60 1898.64 100.271431 2.617831 60.130849 31.149619 0.000000 0.000000 0.000000 0.000000 0.000000 0.046056 0.172180 0.000000 0.000000 6.154897 
83953.90 1898.42 100.271438 2.641849 60.142668 31.117971 0.000000 0.000000 0.000000 0.000000 0.000000 0.046064 0.172147 0.000000 0.000000 6.150739 
83786.10 1898.19 100.271444 2.666066 60.154406 31.086378 0.000000 0.000000 0.000000 0.000000 0.000000 0.046072 0.172114 0.000000 0.000000 6.146407 
83618.40 1897.97 100.271451 2.690818 60.166714 31.053696 0.000000 0.000000 0.000000 0.000000 0.000000 0.046080 0.172081 0.000000 0.000000 6.142062 
83450.60 1897.75 100.271457 2.715966 60.179287 31.020452 0.000000 0.000000 0.000000 0.000000 0.000000 0.046088 0.172046 0.000000 0.000000 6.137617 
83282.90 1897.53 100.271463 2.741480 60.192107 30.986693 0.000000 0.000000 0.000000 0.000000 0.000000 0.046097 0.172011 0.000000 0.000000 6.133076 
83115.20 1897.30 100.271469 2.767194 60.204842 30.952997 0.000000 0.000000 0.000000 0.000000 0.000000 0.046105 0.171976 0.000000 0.000000 6.128356 
82947.40 1897.08 100.271475 2.793513 60.218203 30.918097 0.000000 0.000000 0.000000 0.000000 0.000000 0.046113 0.171939 0.000000 0.000000 6.123610 
82779.70 1896.86 100.271480 2.820218 60.231824 30.882654 0.000000 0.000000 0.000000 0.000000 0.000000 0.046121 0.171902 0.000000 0.000000 6.118761 
82612.00 1896.63 100.271485 2.847137 60.245369 30.847258 0.000000 0.000000 0.000000 0.000000 0.000000 0.046129 0.171865 0.000000 0.000000 6.113726 
82444.30 1896.41 100.271491 2.874671 60.259551 30.810642 0.000000 0.000000 0.000000 0.000000 0.000000 0.046137 0.171827 0.000000 0.000000 6.108662 
82276.50 1896.19 100.271496 2.902651 60.274037 30.773390 0.000000 0.000000 0.000000 0.000000 0.000000 0.046145 0.171788 0.000000 0.000000 6.103485 
82108.80 1895.97 100.271501 2.931046 60.288805 30.735552 0.000000 0.000000 0.000000 0.000000 0.000000 0.046153 0.171748 0.000000 0.000000 6.098197 
81941.10 1895.74 100.271505 2.959675 60.303507 30.697740 0.000000 0.000000 0.000000 0.000000 0.000000 0.046161 0.171707 0.000000 0.000000 6.092715 
81773.40 1895.52 100.271510 2.988959 60.318882 30.658640 0.000000 0.000000 0.000000 0.000000 0.000000 0.046169 0.171666 0.000000 0.000000 6.087194 
81605.70 1895.30 100.271514 3.018700 60.334570 30.618890 0.000000 0.000000 0.000000 0.000000 0.000000 0.046177 0.171624 0.000000 0.000000 6.081553 
81438.00 1895.07 100.271519 3.048692 60.350201 30.579147 0.000000 0.000000 0.000000 0.000000 0.000000 0.046185 0.171581 0.000000 0.000000 6.075712 
81270.30 1894.85 100.271523 3.079371 60.366533 30.538063 0.000000 0.000000 0.000000 0.000000 0.000000 0.046193 0.171537 0.000000 0.000000 6.069824 
81102.60 1894.63 100.271526 3.110533 60.383199 30.496292 0.000000 0.000000 0.000000 0.000000 0.000000 0.046201 0.171492 0.000000 0.000000 6.063809 
80934.90 1894.41 100.271530 3.142186 60.400204 30.453818 0.000000 0.000000 0.000000 0.000000 0.000000 0.046209 0.171447 0.000000 0.000000 6.057665 
80767.20 1894.18 100.271533 3.174114 60.417164 30.411327 0.000000 0.000000 0.000000 0.000000 0.000000 0.046217 0.171401 0.000000 0.000000 6.051311 
80599.60 1893.96 100.271536 3.206752 60.434850 30.367453 0.000000 0.000000 0.000000 0.000000 0.000000 0.046225 0.171353 0.000000 0.000000 6.044902 
80431.90 1893.74 100.271539 3.239931 60.452914 30.322803 0.000000 0.000000 0.000000 0.000000 0.000000 0.046232 0.171305 0.000000 0.000000 6.038354 
80264.20 1893.51 100.271542 3.273404 60.470942 30.278112 0.000000 0.000000 0.000000 0.000000 0.000000 0.046240 0.171256 0.000000 0.000000 6.031588 
80096.50 1893.29 100.271545 3.307646 60.489745 30.231943 0.000000 0.000000 0.000000 0.000000 0.000000 0.046248 0.171206 0.000000 0.000000 6.024757 
79928.90 1893.07 100.271547 3.342411 60.508915 30.185027 0.000000 0.000000 0.000000 0.000000 0.000000 0.046255 0.171155 0.000000 0.000000 6.017784 
79761.20 1892.85 100.271549 3.377758 60.528493 30.137274 0.000000 0.000000 0.000000 0.000000 0.000000 0.046263 0.171102 0.000000 0.000000 6.010659 
79593.50 1892.62 100.271551 3.413425 60.548051 30.089448 0.000000 0.000000 0.000000 0.000000 0.000000 0.046270 0.171049 0.000000 0.000000 6.003306 
79425.90 1892.40 100.271552 3.449890 60.568414 30.040096 0.000000 0.000000 0.000000 0.000000 0.000000 0.046278 0.170995 0.000000 0.000000 5.995879 
79258.20 1892.18 100.271553 3.486968 60.589209 29.989858 0.000000 0.000000 0.000000 0.000000 0.000000 0.046285 0.170940 0.000000 0.000000 5.988293 
79090.60 1891.95 100.271554 3.524363 60.609979 29.939564 0.000000 0.000000 0.000000 0.000000 0.000000 0.046293 0.170883 0.000000 0.000000 5.980473 
78922.90 1891.73 100.271555 3.562647 60.631627 29.887592 0.000000 0.000000 0.000000 0.000000 0.000000 0.046300 0.170826 0.000000 0.000000 5.972563 
78755.30 1891.51 100.271555 3.601527 60.653698 29.834766 0.000000 0.000000 0.000000 0.000000 0.000000 0.046307 0.170767 0.000000 0.000000 5.964491 
78587.60 1891.29 100.271555 3.641066 60.676238 29.780985 0.000000 0.000000 0.000000 0.000000 0.000000 0.046314 0.170707 0.000000 0.000000 5.956245 
78420.00 1891.06 100.271555 3.680951 60.698769 29.727113 0.000000 0.000000 0.000000 0.000000 0.000000 0.046321 0.170646 0.000000 0.000000 5.947755 
78252.30 1890.84 100.271555 3.721788 60.722234 29.671460 0.000000 0.000000 0.000000 0.000000 0.000000 0.046328 0.170583 0.000000 0.000000 5.939162 
78084.70 1890.62 100.271554 3.763265 60.746157 29.614884 0.000000 0.000000 0.000000 0.000000 0.000000 0.046335 0.170519 0.000000 0.000000 5.930394 
77917.10 1890.39 100.271553 3.805140 60.770104 29.558146 0.000000 0.000000 0.000000 0.000000 0.000000 0.046342 0.170454 0.000000 0.000000 5.921367 
77749.50 1890.17 100.271552 3.847986 60.795008 29.499590 0.000000 0.000000 0.000000 0.000000 0.000000 0.046349 0.170388 0.000000 0.000000 5.912231 
