Title: Sanloup as cited by Taylor et al. (2014)

Phase Volumes:
Pressure Temperature mass V liquid_0 olivine_0 garnet_0 orthopyroxene_0 clinopyroxene_0 feldspar_0 
99995.30 2088.27 100.019117 28.723108 1.015709 7.336363 3.758341 16.612695 0.000000 0.000000 
99697.60 2087.76 100.019223 28.728041 1.018265 7.338727 3.756721 16.614329 0.000000 0.000000 
99399.90 2087.25 100.019331 28.732999 1.020875 7.341051 3.755081 16.615991 0.000000 0.000000 
99102.20 2086.73 100.019440 28.737972 1.023522 7.343364 3.753418 16.617668 0.000000 0.000000 
98804.60 2086.22 100.019551 28.742978 1.026243 7.345602 3.751741 16.619392 0.000000 0.000000 
98506.90 2085.71 100.019663 28.748013 1.029026 7.347793 3.750043 16.621150 0.000000 0.000000 
98209.30 2085.19 100.019777 28.753062 1.031850 7.349964 3.748322 16.622926 0.000000 0.000000 
97911.70 2084.68 100.019892 28.758149 1.034758 7.352050 3.746585 16.624755 0.000000 0.000000 
97614.10 2084.17 100.020009 28.763263 1.037732 7.354080 3.744829 16.626623 0.000000 0.000000 
97316.50 2083.65 100.020128 28.768397 1.040756 7.356080 3.743047 16.628514 0.000000 0.000000 
97018.90 2083.14 100.020248 28.773570 1.043873 7.357985 3.741250 16.630463 0.000000 0.000000 
96721.40 2082.63 100.020370 28.778772 1.047063 7.359822 3.739433 16.632455 0.000000 0.000000 
96423.80 2082.11 100.020493 28.783997 1.050312 7.361619 3.737589 16.634476 0.000000 0.000000 
96126.30 2081.60 100.020619 28.789262 1.053662 7.363309 3.735730 16.636561 0.000000 0.000000 
95828.80 2081.09 100.020746 28.794560 1.057096 7.364919 3.733849 16.638696 0.000000 0.000000 
95531.30 2080.57 100.020876 28.799882 1.060596 7.366478 3.731943 16.640865 0.000000 0.000000 
95233.80 2080.06 100.021007 28.805249 1.064210 7.367915 3.730019 16.643105 0.000000 0.000000 
94936.30 2079.55 100.021140 28.810651 1.067919 7.369258 3.728074 16.645401 0.000000 0.000000 
94638.90 2079.03 100.021275 28.816078 1.071702 7.370536 3.726103 16.647737 0.000000 0.000000 
94341.50 2078.52 100.021412 28.821553 1.075611 7.371677 3.724114 16.650150 0.000000 0.000000 
94044.10 2078.00 100.021552 28.827056 1.079604 7.372743 3.722099 16.652610 0.000000 0.000000 
93746.70 2077.49 100.021693 28.832610 1.083732 7.373660 3.720066 16.655152 0.000000 0.000000 
93449.30 2076.98 100.021836 28.838205 1.087976 7.374457 3.718010 16.657763 0.000000 0.000000 
93151.90 2076.46 100.021982 28.843831 1.092316 7.375162 3.715927 16.660426 0.000000 0.000000 
92854.60 2075.95 100.022130 28.849510 1.096804 7.375700 3.713826 16.663180 0.000000 0.000000 
92557.20 2075.43 100.022280 28.855224 1.101399 7.376135 3.711697 16.665993 0.000000 0.000000 
92259.90 2074.92 100.022433 28.860993 1.106155 7.376387 3.709549 16.668902 0.000000 0.000000 
91962.60 2074.41 100.022588 28.866810 1.111051 7.376487 3.707379 16.671894 0.000000 0.000000 
91665.30 2073.89 100.022745 28.872664 1.116068 7.376464 3.705180 16.674951 0.000000 0.000000 
91368.00 2073.38 100.022904 28.878579 1.121266 7.376236 3.702962 16.678116 0.000000 0.000000 
91070.80 2072.86 100.023066 28.884532 1.126591 7.375873 3.700717 16.681351 0.000000 0.000000 
90773.50 2072.35 100.023230 28.890552 1.132114 7.375286 3.698451 16.684701 0.000000 0.000000 
90476.30 2071.84 100.023397 28.896624 1.137806 7.374510 3.696162 16.688147 0.000000 0.000000 
90179.10 2071.32 100.023566 28.902739 1.143647 7.373574 3.693844 16.691674 0.000000 0.000000 
89881.90 2070.81 100.023738 28.908925 1.149703 7.372390 3.691507 16.695325 0.000000 0.000000 
89584.70 2070.29 100.023912 28.915156 1.155922 7.371031 3.689140 16.699063 0.000000 0.000000 
89287.60 2069.78 100.024089 28.921458 1.162369 7.369405 3.686755 16.702929 0.000000 0.000000 
88990.40 2069.26 100.024268 28.927812 1.168994 7.367587 3.684339 16.706891 0.000000 0.000000 
88693.30 2068.75 100.024449 28.934240 1.175865 7.365482 3.681904 16.710989 0.000000 0.000000 
88396.20 2068.23 100.024633 28.940719 1.182925 7.363169 3.679440 16.715186 0.000000 0.000000 
88099.10 2067.72 100.024819 28.947280 1.190250 7.360548 3.676955 16.719527 0.000000 0.000000 
87802.00 2067.20 100.025007 28.953894 1.197780 7.357700 3.674441 16.723973 0.000000 0.000000 
87505.00 2066.69 100.025198 28.960590 1.205589 7.354526 3.671907 16.728567 0.000000 0.000000 
87207.90 2066.17 100.025391 28.967344 1.213621 7.351106 3.669344 16.733274 0.000000 0.000000 
86910.90 2065.66 100.025587 28.974185 1.221952 7.347338 3.666759 16.738136 0.000000 0.000000 
86613.90 2065.14 100.025784 28.981083 1.230516 7.343309 3.664146 16.743112 0.000000 0.000000 
86316.80 2064.63 100.025983 28.988075 1.239405 7.338908 3.661511 16.748252 0.000000 0.000000 
86019.90 2064.11 100.026185 28.995123 1.248536 7.334233 3.658848 16.753506 0.000000 0.000000 
85722.90 2063.60 100.026388 29.002267 1.258011 7.329165 3.656163 16.758928 0.000000 0.000000 
85425.90 2063.08 100.026593 29.009473 1.267749 7.323803 3.653449 16.764472 0.000000 0.000000 
85129.00 2062.57 100.026800 29.016773 1.277842 7.318035 3.650714 16.770182 0.000000 0.000000 
84832.10 2062.05 100.027008 29.024137 1.288214 7.311959 3.647950 16.776014 0.000000 0.000000 
84535.20 2061.54 100.027218 29.031599 1.298963 7.305455 3.645165 16.782016 0.000000 0.000000 
84238.30 2061.02 100.027428 29.039125 1.310003 7.298630 3.642351 16.788141 0.000000 0.000000 
83941.40 2060.51 100.027641 29.046751 1.321440 7.291361 3.639514 16.794436 0.000000 0.000000 
83644.50 2059.99 100.027853 29.054441 1.333181 7.283760 3.636649 16.800851 0.000000 0.000000 
83347.70 2059.48 100.028067 29.062230 1.345330 7.275706 3.633763 16.807431 0.000000 0.000000 
83050.90 2058.96 100.028282 29.070083 1.357797 7.267310 3.630848 16.814128 0.000000 0.000000 
82754.10 2058.45 100.028497 29.078037 1.370693 7.258444 3.627911 16.820989 0.000000 0.000000 
82457.30 2057.93 100.028713 29.086054 1.383916 7.249231 3.624945 16.827961 0.000000 0.000000 
82160.50 2057.41 100.028928 29.094152 1.397528 7.239605 3.621953 16.835066 0.000000 0.000000 
81863.70 2056.90 100.029144 29.102352 1.411594 7.229493 3.618939 16.842326 0.000000 0.000000 
81567.00 2056.38 100.029360 29.110609 1.425997 7.219033 3.615897 16.849682 0.000000 0.000000 
81270.20 2055.87 100.029576 29.118970 1.440874 7.208077 3.612830 16.857188 0.000000 0.000000 
80973.50 2055.35 100.029791 29.127385 1.456098 7.196771 3.609736 16.864780 0.000000 0.000000 
80676.80 2054.84 100.030006 29.135900 1.471805 7.184968 3.606617 16.872510 0.000000 0.000000 
80380.10 2054.32 100.030221 29.144470 1.487873 7.172810 3.603470 16.880318 0.000000 0.000000 
80083.50 2053.80 100.030434 29.153112 1.504365 7.160230 3.600296 16.888221 0.000000 0.000000 
79786.80 2053.29 100.030648 29.161856 1.521370 7.147142 3.597096 16.896248 0.000000 0.000000 
79490.20 2052.77 100.030860 29.170647 1.538742 7.133706 3.593868 16.904331 0.000000 0.000000 
79193.60 2052.25 100.031071 29.179510 1.556562 7.119841 3.590611 16.912495 0.000000 0.000000 
78897.00 2051.74 100.031282 29.188469 1.574912 7.105469 3.587328 16.920760 0.000000 0.000000 
78600.40 2051.22 100.031491 29.197474 1.593651 7.090745 3.584014 16.929065 0.000000 0.000000 
78303.80 2050.71 100.031700 29.206573 1.612935 7.075509 3.580672 16.937457 0.000000 0.000000 
78007.20 2050.19 100.031907 29.215716 1.632620 7.059923 3.577297 16.945876 0.000000 0.000000 
77710.70 2049.67 100.032113 29.224923 1.652780 7.043911 3.573893 16.954339 0.000000 0.000000 
77414.20 2049.16 100.032319 29.234222 1.673513 7.027381 3.570459 16.962869 0.000000 0.000000 
77117.70 2048.64 100.032523 29.243562 1.694666 7.010500 3.566990 16.971406 0.000000 0.000000 
76821.20 2048.12 100.032726 29.252967 1.716326 6.993183 3.563488 16.979970 0.000000 0.000000 
76524.70 2047.61 100.032928 29.262463 1.738593 6.975336 3.559953 16.988581 0.000000 0.000000 
76228.30 2047.09 100.033130 29.271993 1.761292 6.957143 3.556382 16.997176 0.000000 0.000000 
75931.80 2046.57 100.033330 29.281591 1.784539 6.938496 3.552773 17.005783 0.000000 0.000000 
75635.40 2046.06 100.033530 29.291275 1.808420 6.919313 3.549129 17.014413 0.000000 0.000000 
75339.00 2045.54 100.033728 29.300996 1.832771 6.899767 3.545444 17.023014 0.000000 0.000000 
75042.60 2045.02 100.033926 29.310781 1.857695 6.879762 3.541720 17.031605 0.000000 0.000000 
74746.20 2044.51 100.034124 29.320658 1.883307 6.859193 3.537954 17.040203 0.000000 0.000000 
74449.80 2043.99 100.034321 29.330570 1.909422 6.838248 3.534144 17.048756 0.000000 0.000000 
74153.50 2043.47 100.034517 29.340543 1.936142 6.816833 3.530290 17.057278 0.000000 0.000000 
73857.10 2042.96 100.034713 29.350614 1.963612 6.794818 3.526390 17.065794 0.000000 0.000000 
73560.80 2042.44 100.034909 29.360717 1.991613 6.772418 3.522441 17.074246 0.000000 0.000000 
73264.50 2041.92 100.035105 29.370887 2.020278 6.749512 3.518441 17.082655 0.000000 0.000000 
72968.30 2041.40 100.035301 29.381119 2.049614 6.726101 3.514391 17.091013 0.000000 0.000000 
72672.00 2040.89 100.035497 29.391454 2.079781 6.702044 3.510286 17.099343 0.000000 0.000000 
72375.70 2040.37 100.035693 29.401828 2.110554 6.677556 3.506123 17.107595 0.000000 0.000000 
72079.50 2039.85 100.035890 29.412268 2.142056 6.652528 3.501903 17.115781 0.000000 0.000000 
71783.30 2039.34 100.036087 29.422812 2.174448 6.626822 3.497621 17.123921 0.000000 0.000000 
71487.10 2038.82 100.036285 29.433397 2.207501 6.600651 3.493275 17.131970 0.000000 0.000000 
71190.90 2038.30 100.036484 29.444057 2.241363 6.573887 3.488863 17.139944 0.000000 0.000000 
70894.70 2037.78 100.036683 29.454793 2.276058 6.546515 3.484381 17.147840 0.000000 0.000000 
70598.60 2037.27 100.036885 29.465637 2.311737 6.518406 3.479828 17.155666 0.000000 0.000000 
70302.40 2036.75 100.037087 29.476532 2.348179 6.489765 3.475197 17.163391 0.000000 0.000000 
70006.30 2036.23 100.037290 29.487504 2.385518 6.460475 3.470490 17.171021 0.000000 0.000000 
69710.20 2035.71 100.037495 29.498560 2.423796 6.430506 3.465700 17.178558 0.000000 0.000000 
69414.10 2035.20 100.037703 29.509737 2.463199 6.399705 3.460824 17.186010 0.000000 0.000000 
69118.00 2034.68 100.037912 29.520968 2.503450 6.368315 3.455858 17.193345 0.000000 0.000000 
68822.00 2034.16 100.038122 29.532284 2.544713 6.336197 3.450801 17.200572 0.000000 0.000000 
68525.90 2033.64 100.038336 29.543697 2.587056 6.303303 3.445645 17.207693 0.000000 0.000000 
68229.90 2033.12 100.038551 29.555200 2.630476 6.269637 3.440388 17.214700 0.000000 0.000000 
67933.90 2032.61 100.038770 29.566838 2.675201 6.235013 3.435023 17.221601 0.000000 0.000000 
67637.90 2032.09 100.038991 29.578538 2.720915 6.199701 3.429548 17.228374 0.000000 0.000000 
67341.90 2031.57 100.039216 29.590340 2.767828 6.163529 3.423957 17.235025 0.000000 0.000000 
67046.00 2031.05 100.039443 29.602240 2.815953 6.126489 3.418247 17.241551 0.000000 0.000000 
66750.00 2030.53 100.039674 29.614251 2.865367 6.088523 3.412408 17.247953 0.000000 0.000000 
66454.10 2030.02 100.039908 29.626406 2.916270 6.049470 3.406436 17.254230 0.000000 0.000000 
66158.20 2029.50 100.040146 29.638631 2.968318 6.009616 3.400328 17.260370 0.000000 0.000000 
65862.30 2028.98 100.040388 29.650969 3.021744 5.968771 3.394075 17.266378 0.000000 0.000000 
65566.40 2028.46 100.040634 29.663420 3.076587 5.926908 3.387672 17.272253 0.000000 0.000000 
65270.50 2027.94 100.040885 29.675986 3.132884 5.883999 3.381111 17.277993 0.000000 0.000000 
64974.70 2027.42 100.041139 29.688665 3.190647 5.840035 3.374387 17.283596 0.000000 0.000000 
64678.90 2026.90 100.041399 29.701461 3.249934 5.794973 3.367491 17.289063 0.000000 0.000000 
64383.10 2026.39 100.041664 29.714424 3.311031 5.748588 3.360410 17.294395 0.000000 0.000000 
64087.30 2025.87 100.041933 29.727460 3.373480 5.701243 3.353146 17.299592 0.000000 0.000000 
63791.50 2025.35 100.042208 29.740617 3.437555 5.652720 3.345686 17.304655 0.000000 0.000000 
63495.70 2024.83 100.042489 29.753894 3.503289 5.602997 3.338021 17.309588 0.000000 0.000000 
63200.00 2024.31 100.042774 29.767286 3.570680 5.552071 3.330146 17.314389 0.000000 0.000000 
62904.20 2023.79 100.043066 29.780802 3.639812 5.499879 3.322044 17.319067 0.000000 0.000000 
62608.50 2023.27 100.043364 29.794431 3.710651 5.446444 3.313713 17.323622 0.000000 0.000000 
62312.80 2022.75 100.043667 29.808175 3.783245 5.391730 3.305140 17.328061 0.000000 0.000000 
62017.10 2022.24 100.043978 29.822086 3.857924 5.335479 3.296304 17.332380 0.000000 0.000000 
61721.50 2021.72 100.044295 29.836050 3.934052 5.278179 3.287217 17.336602 0.000000 0.000000 
61425.80 2021.20 100.044618 29.850127 4.012005 5.219541 3.277852 17.340729 0.000000 0.000000 
61130.20 2020.68 100.044948 29.864300 4.091721 5.159606 3.268205 17.344768 0.000000 0.000000 
60834.50 2020.16 100.045284 29.878577 4.173265 5.098324 3.258258 17.348731 0.000000 0.000000 
60538.90 2019.64 100.045628 29.892941 4.256563 5.035747 3.248005 17.352626 0.000000 0.000000 
60243.40 2019.12 100.045978 29.907385 4.341599 4.971884 3.237435 17.356467 0.000000 0.000000 
59947.80 2018.60 100.046336 29.921914 4.428425 4.906694 3.226528 17.360268 0.000000 0.000000 
59652.20 2018.08 100.046700 29.936515 4.516980 4.840218 3.215274 17.364043 0.000000 0.000000 
59356.70 2017.56 100.047072 29.951173 4.607195 4.772505 3.203666 17.367807 0.000000 0.000000 
59061.20 2017.04 100.047451 29.965885 4.699068 4.703554 3.191686 17.371577 0.000000 0.000000 
58765.70 2016.52 100.047837 29.980643 4.792554 4.633397 3.179320 17.375372 0.000000 0.000000 
58470.20 2016.00 100.048231 29.995436 4.887601 4.562069 3.166556 17.379211 0.000000 0.000000 
58174.70 2015.48 100.048631 30.010255 4.984151 4.489611 3.153379 17.383114 0.000000 0.000000 
57879.20 2014.96 100.049039 30.025087 5.082142 4.416069 3.139775 17.387102 0.000000 0.000000 
57583.80 2014.44 100.049454 30.039917 5.181460 4.341526 3.125735 17.391195 0.000000 0.000000 
57288.40 2013.92 100.049876 30.054739 5.282073 4.266006 3.111241 17.395419 0.000000 0.000000 
56993.00 2013.41 100.050306 30.069608 5.384365 4.189215 3.096255 17.399774 0.000000 0.000000 
56697.60 2012.89 100.050742 30.084381 5.487330 4.111917 3.080807 17.404328 0.000000 0.000000 
56402.20 2012.37 100.051184 30.099114 5.591336 4.033832 3.064860 17.409085 0.000000 0.000000 
56106.80 2011.85 100.051634 30.113795 5.696295 3.955030 3.048400 17.414070 0.000000 0.000000 
55811.50 2011.33 100.052089 30.128407 5.802068 3.875614 3.031417 17.419307 0.000000 0.000000 
55516.20 2010.81 100.052552 30.142948 5.908606 3.795626 3.013891 17.424824 0.000000 0.000000 
55220.90 2010.28 100.053019 30.157339 6.015304 3.715530 2.995837 17.430669 0.000000 0.000000 
54925.60 2009.76 100.053494 30.171709 6.123081 3.634627 2.977178 17.436823 0.000000 0.000000 
54630.30 2009.24 100.053975 30.185980 6.231341 3.553378 2.957927 17.443334 0.000000 0.000000 
54335.00 2008.72 100.054462 30.200147 6.339992 3.471857 2.938070 17.450228 0.000000 0.000000 
54039.80 2008.20 100.054955 30.214197 6.448899 3.390172 2.917595 17.457531 0.000000 0.000000 
53744.60 2007.68 100.055454 30.228131 6.558021 3.308362 2.896480 17.465268 0.000000 0.000000 
53449.30 2007.16 100.055959 30.241951 6.667322 3.226462 2.874697 17.473469 0.000000 0.000000 
53154.20 2006.64 100.056469 30.255637 6.776585 3.144645 2.852255 17.482152 0.000000 0.000000 
52859.00 2006.12 100.056985 30.269203 6.885876 3.062870 2.829109 17.491348 0.000000 0.000000 
52563.80 2005.60 100.057506 30.282644 6.995078 2.981236 2.805249 17.501081 0.000000 0.000000 
52268.70 2005.08 100.058033 30.295953 7.104082 2.899835 2.780665 17.511372 0.000000 0.000000 
51973.50 2004.56 100.058566 30.309144 7.212923 2.818653 2.755317 17.522251 0.000000 0.000000 
51678.40 2004.04 100.059104 30.322207 7.321456 2.737810 2.729204 17.533737 0.000000 0.000000 
51383.30 2003.52 100.059648 30.335152 7.429681 2.657320 2.702295 17.545856 0.000000 0.000000 
51088.20 2003.00 100.060197 30.347982 7.537556 2.577225 2.674568 17.558633 0.000000 0.000000 
50793.20 2002.48 100.060751 30.360698 7.645002 2.497599 2.646009 17.572088 0.000000 0.000000 
50498.10 2001.96 100.061312 30.373316 7.752082 2.418408 2.616574 17.586252 0.000000 0.000000 
50203.10 2001.43 100.061876 30.385768 7.858109 2.340190 2.586316 17.601153 0.000000 0.000000 
49908.10 2000.91 100.062448 30.398196 7.964253 2.262064 2.555086 17.616794 0.000000 0.000000 
49613.10 2000.39 100.063025 30.410546 8.069932 2.184488 2.522913 17.633213 0.000000 0.000000 
49318.10 1999.87 100.063608 30.422825 8.175140 2.107483 2.489767 17.650434 0.000000 0.000000 
49023.10 1999.35 100.064198 30.435043 8.279875 2.031065 2.455620 17.668483 0.000000 0.000000 
48728.20 1998.83 100.064793 30.447207 8.384094 1.955280 2.420455 17.687378 0.000000 0.000000 
48433.30 1998.31 100.065395 30.459332 8.487851 1.880103 2.384226 17.707152 0.000000 0.000000 
48138.40 1997.79 100.066003 30.471430 8.591159 1.805540 2.346902 17.727829 0.000000 0.000000 
47843.50 1997.26 100.066617 30.483451 8.693455 1.732038 2.308519 17.749438 0.000000 0.000000 
47548.60 1996.74 100.067239 30.495532 8.795917 1.658711 2.268898 17.772005 0.000000 0.000000 
47253.70 1996.22 100.067868 30.507625 8.897993 1.585998 2.228073 17.795561 0.000000 0.000000 
46958.90 1995.70 100.068504 30.519736 8.999664 1.513928 2.186019 17.820125 0.000000 0.000000 
46664.00 1995.18 100.069147 30.531892 9.101053 1.442428 2.142665 17.845746 0.000000 0.000000 
46369.20 1994.66 100.069798 30.544094 9.202105 1.371552 2.098000 17.872437 0.000000 0.000000 
46074.40 1994.13 100.070456 30.556303 9.302323 1.301700 2.052051 17.900229 0.000000 0.000000 
45779.60 1993.61 100.071123 30.568655 9.402909 1.231971 2.004597 17.929176 0.000000 0.000000 
45484.90 1993.09 100.071799 30.581098 9.503283 1.162825 1.955695 17.959294 0.000000 0.000000 
45190.10 1992.57 100.072483 30.593660 9.603581 1.094182 1.905256 17.990641 0.000000 0.000000 
44895.40 1992.05 100.073177 30.606345 9.703763 1.026084 1.853265 18.023234 0.000000 0.000000 
44600.70 1991.52 100.073878 30.619115 9.803343 0.958922 1.799750 18.057100 0.000000 0.000000 
44306.00 1991.00 100.074590 30.632106 9.903542 0.891790 1.744450 18.092324 0.000000 0.000000 
44011.30 1990.48 100.075312 30.645276 10.003834 0.825107 1.687403 18.128931 0.000000 0.000000 
43716.60 1989.96 100.076045 30.658640 10.104279 0.758849 1.628546 18.166966 0.000000 0.000000 
43422.00 1989.44 100.076788 30.672212 10.204896 0.693019 1.567834 18.206463 0.000000 0.000000 
43127.30 1988.91 100.077540 30.685960 10.305251 0.627972 1.505272 18.247465 0.000000 0.000000 
42832.70 1988.39 100.078306 30.700011 10.406493 0.562857 1.440595 18.290065 0.000000 0.000000 
42538.10 1987.87 100.079083 30.714330 10.508153 0.498058 1.373821 18.334299 0.000000 0.000000 
42243.50 1987.35 100.079872 30.728936 10.610301 0.433542 1.304867 18.380225 0.000000 0.000000 
41949.00 1986.82 100.080672 30.743780 10.712376 0.369751 1.233812 18.427841 0.000000 0.000000 
41654.40 1986.30 100.081487 30.759019 10.815727 0.305711 1.160245 18.477336 0.000000 0.000000 
41359.90 1985.78 100.082316 30.774598 10.919752 0.241889 1.084257 18.528700 0.000000 0.000000 
41065.40 1985.26 100.083158 30.790546 11.024581 0.178222 1.005724 18.582020 0.000000 0.000000 
40770.90 1984.73 100.084013 30.806821 11.129700 0.115115 0.924696 18.637311 0.000000 0.000000 
40476.40 1984.21 100.084884 30.823572 11.236392 0.051652 0.840757 18.694772 0.000000 0.000000 
40181.90 1983.69 100.085723 30.839796 11.331501 0.000000 0.755782 18.752513 0.000000 0.000000 
39887.50 1983.16 100.086361 30.852242 11.372237 0.000000 0.676351 18.803654 0.000000 0.000000 
39593.00 1982.64 100.087013 30.865238 11.414600 0.000000 0.594267 18.856371 0.000000 0.000000 
39298.60 1982.12 100.087679 30.878766 11.458492 0.000000 0.509585 18.910689 0.000000 0.000000 
39004.20 1981.60 100.088360 30.892848 11.503999 0.000000 0.422165 18.966684 0.000000 0.000000 
38709.80 1981.07 100.089055 30.907472 11.551049 0.000000 0.332008 19.024415 0.000000 0.000000 
38415.40 1980.55 100.089766 30.922723 11.600003 0.000000 0.238768 19.083952 0.000000 0.000000 
38121.10 1980.03 100.090492 30.938585 11.650783 0.000000 0.142461 19.145340 0.000000 0.000000 
