Title: Primitive mantle composition from McDonough & Sun (1995),

Phase Masses:
Pressure Temperature mass liquid_0 olivine_0 garnet_0 orthopyroxene_0 clinopyroxene_0 biotite_0 spinel_0 whitlockite 
39887.50 1637.67 99.939186 1.259730 54.393664 14.893089 15.565485 13.025080 0.083793 0.705853 0.012494 
39593.00 1637.36 99.939278 1.268236 54.389945 14.852881 15.602245 13.024564 0.080719 0.708861 0.011828 
39298.60 1637.06 99.939372 1.277229 54.386006 14.811659 15.639871 13.023999 0.077498 0.711965 0.011144 
39004.20 1636.75 99.939467 1.286500 54.382022 14.769399 15.678186 13.023564 0.074183 0.715163 0.010449 
38709.80 1636.45 99.939564 1.296298 54.377814 14.726040 15.717428 13.023077 0.070705 0.718468 0.009735 
38415.40 1636.15 99.939663 1.306525 54.373466 14.681557 15.757513 13.022628 0.067086 0.721881 0.009005 
38121.10 1635.84 99.939764 1.317074 54.369072 14.635942 15.798344 13.022310 0.063356 0.725402 0.008263 
37826.80 1635.54 99.939867 1.328210 54.364446 14.589112 15.840179 13.021937 0.059435 0.729046 0.007501 
37532.40 1635.23 99.939972 1.339716 54.359764 14.541038 15.882842 13.021693 0.055383 0.732812 0.006726 
37238.10 1634.93 99.940079 1.351850 54.354850 14.491677 15.926550 13.021390 0.051119 0.736712 0.005930 
36943.90 1634.62 99.940188 1.364387 54.349882 14.441018 15.971110 13.021217 0.046708 0.740745 0.005121 
36649.60 1634.32 99.940300 1.377616 54.344673 14.388943 16.016810 13.020978 0.042059 0.744930 0.004290 
36355.30 1634.01 99.940413 1.391302 54.339405 14.335456 16.063439 13.020865 0.037237 0.749264 0.003445 
36061.10 1633.71 99.940529 1.405730 54.333898 14.280484 16.111244 13.020681 0.032151 0.753764 0.002578 
35766.90 1633.41 99.940648 1.420806 54.328238 14.223973 16.160161 13.020519 0.026823 0.758435 0.001692 
35472.70 1633.10 99.940769 1.436427 54.322517 14.165887 16.210108 13.020477 0.021282 0.763281 0.000791 
35178.50 1632.80 99.940893 1.452699 54.316704 14.106076 16.261214 13.020464 0.015409 0.768327 0.000000 
34884.30 1632.49 99.941019 1.468354 54.311764 14.044301 16.312533 13.021266 0.009210 0.773590 0.000000 
34590.20 1632.19 99.941148 1.484911 54.306619 13.980734 16.365193 13.021975 0.002644 0.779072 0.000000 
34296.10 1631.89 99.941285 1.498159 54.301203 13.913181 16.415812 13.028210 0.000000 0.784720 0.000000 
34001.90 1631.58 99.941429 1.509219 54.295545 13.842239 16.465498 13.038362 0.000000 0.790567 0.000000 
33707.80 1631.28 99.941577 1.520833 54.289530 13.769077 16.516520 13.048942 0.000000 0.796675 0.000000 
33413.80 1630.97 99.941727 1.532824 54.283322 13.693721 16.568767 13.060046 0.000000 0.803047 0.000000 
33119.70 1630.67 99.941882 1.545417 54.276719 13.615899 16.622498 13.071630 0.000000 0.809719 0.000000 
32825.60 1630.37 99.942041 1.558529 54.269797 13.535590 16.677673 13.083752 0.000000 0.816701 0.000000 
32531.60 1630.06 99.942204 1.572072 54.262630 13.452778 16.734252 13.096469 0.000000 0.824003 0.000000 
32237.60 1629.76 99.942371 1.586276 54.255014 13.367183 16.792491 13.109741 0.000000 0.831666 0.000000 
31943.60 1629.45 99.942543 1.600959 54.247108 13.278816 16.852295 13.123666 0.000000 0.839698 0.000000 
31649.60 1629.15 99.942719 1.616352 54.238704 13.187398 16.913914 13.138210 0.000000 0.848141 0.000000 
31355.60 1628.85 99.942900 1.632376 54.229867 13.092852 16.977349 13.153440 0.000000 0.857016 0.000000 
31061.70 1628.54 99.943086 1.648943 54.220667 12.995140 17.042577 13.169418 0.000000 0.866341 0.000000 
30767.80 1628.24 99.943278 1.666302 54.210880 12.893901 17.109898 13.186126 0.000000 0.876171 0.000000 
30473.90 1627.93 99.943475 1.684265 54.200661 12.789122 17.179237 13.203667 0.000000 0.886523 0.000000 
30180.00 1627.63 99.943678 1.703084 54.189781 12.680437 17.250893 13.222028 0.000000 0.897456 0.000000 
29886.10 1627.33 99.943888 1.722683 54.178295 12.567722 17.324897 13.241288 0.000000 0.909003 0.000000 
29592.20 1627.02 99.944103 1.742980 54.166255 12.450854 17.401287 13.261527 0.000000 0.921202 0.000000 
29298.40 1626.72 99.944326 1.764234 54.153421 12.329437 17.480372 13.282743 0.000000 0.934119 0.000000 
29004.50 1626.41 99.944556 1.786267 54.139926 12.203328 17.562170 13.305065 0.000000 0.947798 0.000000 
28710.70 1626.11 99.944794 1.809344 54.125523 12.072122 17.646994 13.328497 0.000000 0.962314 0.000000 
28416.90 1625.81 99.945040 1.833398 54.110238 11.935569 17.734960 13.353148 0.000000 0.977726 0.000000 
28123.10 1625.50 99.945294 1.858348 54.094105 11.793458 17.826166 13.379120 0.000000 0.994096 0.000000 
27829.40 1625.20 99.945558 1.884490 54.076843 11.645240 17.921009 13.406452 0.000000 1.011523 0.000000 
27535.60 1624.90 99.945832 1.911773 54.058454 11.490531 18.019696 13.435282 0.000000 1.030097 0.000000 
27241.90 1624.59 99.946116 1.940096 54.038962 11.329142 18.122312 13.465719 0.000000 1.049886 0.000000 
26948.20 1624.29 99.946412 1.969801 54.018038 11.160276 18.229406 13.497855 0.000000 1.071037 0.000000 
26654.50 1623.99 99.946719 2.000823 53.995668 10.983543 18.341192 13.531842 0.000000 1.093652 0.000000 
26360.80 1623.68 99.947040 2.033085 53.971832 10.798526 18.457907 13.567841 0.000000 1.117848 0.000000 
26067.20 1623.38 99.947374 2.066940 53.946165 10.604352 18.580141 13.605976 0.000000 1.143799 0.000000 
25773.50 1623.08 99.947724 2.102354 53.918592 10.400333 18.708303 13.646471 0.000000 1.171671 0.000000 
25479.90 1622.77 99.948090 2.139229 53.889065 10.186011 18.842663 13.689514 0.000000 1.201608 0.000000 
25186.30 1622.47 99.948474 2.177985 53.857125 9.960092 18.984072 13.735329 0.000000 1.233870 0.000000 
24892.70 1622.17 99.948877 2.218571 53.822647 9.721774 19.133022 13.784191 0.000000 1.268672 0.000000 
24599.10 1621.86 99.949300 2.260926 53.785487 9.470167 19.290067 13.836400 0.000000 1.306252 0.000000 
24305.60 1621.56 99.949747 2.305490 53.745095 9.203720 19.456222 13.892268 0.000000 1.346953 0.000000 
24012.00 1621.25 99.950219 2.352077 53.701341 8.921267 19.632211 13.952229 0.000000 1.391093 0.000000 
23718.50 1620.95 99.950719 2.401147 53.653580 8.620949 19.819249 14.016693 0.000000 1.439101 0.000000 
23425.00 1620.65 99.951250 2.452693 53.601447 8.301045 20.018437 14.086203 0.000000 1.491426 0.000000 
23131.50 1620.34 99.951815 2.506678 53.544529 7.959699 20.230983 14.161361 0.000000 1.548566 0.000000 
22838.00 1620.04 99.952419 2.563669 53.481881 7.593901 20.458837 14.242904 0.000000 1.611227 0.000000 
22544.60 1619.74 99.953065 2.623642 53.412896 7.201154 20.703638 14.331645 0.000000 1.680090 0.000000 
22251.10 1619.44 99.953760 2.686847 53.336601 6.777765 20.967796 14.428663 0.000000 1.756087 0.000000 
21957.70 1619.13 99.954510 2.753230 53.252113 6.320330 21.253581 14.535087 0.000000 1.840169 0.000000 
21664.30 1618.83 99.955323 2.823502 53.157738 5.823150 21.564710 14.652486 0.000000 1.933737 0.000000 
21370.90 1618.53 99.956210 2.897700 53.052005 5.280672 21.904876 14.782657 0.000000 2.038299 0.000000 
21077.50 1618.22 99.957180 2.975840 52.933099 4.686154 22.278593 14.927802 0.000000 2.155692 0.000000 
20784.20 1617.92 99.958250 3.058688 52.798187 4.030081 22.692136 15.090774 0.000000 2.288384 0.000000 
20490.80 1617.62 99.959439 3.146366 52.644204 3.301298 23.152970 15.275210 0.000000 2.439392 0.000000 
20197.50 1617.31 99.960768 3.238832 52.467472 2.486835 23.669848 15.485466 0.000000 2.612316 0.000000 
19904.20 1617.01 99.962271 3.337017 52.262278 1.567228 24.255713 15.727713 0.000000 2.812322 0.000000 
19610.90 1616.71 99.963985 3.440956 52.021996 0.519388 24.926131 16.009734 0.000000 3.045781 0.000000 
19317.60 1616.40 99.964901 3.547959 51.909379 0.000000 25.236920 16.112460 0.000000 3.158183 0.000000 
19024.40 1616.10 99.965014 3.659426 51.926743 0.000000 25.193507 16.037378 0.000000 3.147960 0.000000 
18731.20 1615.80 99.965121 3.777721 51.946260 0.000000 25.146885 15.957254 0.000000 3.137001 0.000000 
18437.90 1615.50 99.965221 3.903476 51.968145 0.000000 25.096749 15.871618 0.000000 3.125233 0.000000 
18144.70 1615.19 99.965315 4.036844 51.992708 0.000000 25.042914 15.780214 0.000000 3.112634 0.000000 
17851.60 1614.89 99.965401 4.179328 52.020024 0.000000 24.984843 15.682172 0.000000 3.099034 0.000000 
17558.40 1614.59 99.965479 4.331458 52.050493 0.000000 24.922195 15.576964 0.000000 3.084370 0.000000 
17265.20 1614.28 99.965548 4.493615 52.084519 0.000000 24.854664 15.464158 0.000000 3.068592 0.000000 
16972.10 1613.98 99.965608 4.667667 52.122288 0.000000 24.781564 15.342598 0.000000 3.051490 0.000000 
16679.00 1613.68 99.965657 4.854367 52.164314 0.000000 24.702430 15.211570 0.000000 3.032975 0.000000 
16385.90 1613.38 99.965694 5.055005 52.211073 0.000000 24.616639 15.070081 0.000000 3.012895 0.000000 
16092.80 1613.07 99.965719 5.270444 52.263175 0.000000 24.523633 14.917318 0.000000 2.991149 0.000000 
15799.70 1612.77 99.965730 5.503484 52.321091 0.000000 24.422336 14.751397 0.000000 2.967422 0.000000 
15506.70 1612.47 99.965725 5.755346 52.385581 0.000000 24.312020 14.571208 0.000000 2.941570 0.000000 
15213.70 1612.16 99.965704 6.027525 52.457532 0.000000 24.191791 14.375435 0.000000 2.913421 0.000000 
14920.70 1611.86 99.965665 6.323840 52.537767 0.000000 24.060129 14.161376 0.000000 2.882553 0.000000 
14627.70 1611.56 99.965605 6.646394 52.627435 0.000000 23.915839 13.927207 0.000000 2.848729 0.000000 
14334.70 1611.26 99.965523 6.998358 52.727800 0.000000 23.757357 13.670406 0.000000 2.811601 0.000000 
14041.70 1610.95 99.965416 7.382399 52.840346 0.000000 23.583112 13.388680 0.000000 2.770879 0.000000 
13748.80 1610.65 99.965282 7.804341 52.966704 0.000000 23.390632 13.077662 0.000000 2.725942 0.000000 
13455.90 1610.35 99.965117 8.268144 53.108937 0.000000 23.177659 12.733994 0.000000 2.676382 0.000000 
13162.90 1610.05 99.964919 8.779351 53.269442 0.000000 22.941309 12.353178 0.000000 2.621639 0.000000 
12870.10 1609.74 99.964685 9.342067 53.450696 0.000000 22.678958 11.931632 0.000000 2.561331 0.000000 
12577.20 1609.44 99.964410 9.966128 53.656133 0.000000 22.385992 11.461646 0.000000 2.494510 0.000000 
12284.30 1609.14 99.964091 10.657438 53.889273 0.000000 22.058598 10.938080 0.000000 2.420701 0.000000 
11991.50 1608.84 99.963726 11.423478 54.154115 0.000000 21.692202 10.354584 0.000000 2.339347 0.000000 
11698.70 1608.53 99.963312 12.270471 54.455047 0.000000 21.282069 9.705595 0.000000 2.250130 0.000000 
11405.90 1608.23 99.962848 13.209400 54.797269 0.000000 20.821861 8.981909 0.000000 2.152408 0.000000 
11113.10 1607.93 99.962334 14.244506 55.185477 0.000000 20.306746 8.179172 0.000000 2.046434 0.000000 
10820.30 1607.63 99.961777 15.379074 55.624131 0.000000 19.732058 7.293704 0.000000 1.932811 0.000000 
10527.50 1607.32 99.961185 16.609650 56.116242 0.000000 19.095210 6.327013 0.000000 1.813070 0.000000 
10234.80 1607.02 99.960572 17.934237 56.664103 0.000000 18.393901 5.279429 0.000000 1.688902 0.000000 
9942.09 1606.72 99.959958 19.338257 57.266843 0.000000 17.630187 4.161314 0.000000 1.563356 0.000000 
9649.39 1606.42 99.959367 20.803464 57.921107 0.000000 16.808635 2.986333 0.000000 1.439829 0.000000 
9356.70 1606.11 99.958825 22.305702 58.620734 0.000000 15.936804 1.773620 0.000000 1.321965 0.000000 
9064.04 1605.81 99.958356 23.829859 59.359988 0.000000 15.020631 0.535558 0.000000 1.212320 0.000000 
8771.39 1605.51 99.958056 24.957184 60.066840 0.000000 13.800650 0.000000 0.000000 1.133382 0.000000 
8478.75 1605.21 99.957841 25.803236 60.758239 0.000000 12.321858 0.000000 0.000000 1.074508 0.000000 
8186.14 1604.91 99.957639 26.676185 61.484794 0.000000 10.777737 0.000000 0.000000 1.018923 0.000000 
7893.54 1604.60 99.957457 27.575477 62.247020 0.000000 9.168077 0.000000 0.000000 0.966883 0.000000 
7600.96 1604.30 99.957300 28.505677 63.046798 0.000000 7.486477 0.000000 0.000000 0.918349 0.000000 
7308.40 1604.00 99.957176 29.467207 63.885008 0.000000 5.731518 0.000000 0.000000 0.873443 0.000000 
7015.85 1603.70 99.957090 30.462868 64.763371 0.000000 3.898733 0.000000 0.000000 0.832119 0.000000 
6723.33 1603.40 99.957051 31.496286 65.684050 0.000000 1.982462 0.000000 0.000000 0.794253 0.000000 
6430.81 1603.09 99.957069 32.559796 66.637295 0.000000 0.000000 0.000000 0.000000 0.759979 0.000000 
6138.32 1602.79 99.957696 32.688179 66.516538 0.000000 0.000000 0.000000 0.000000 0.752979 0.000000 
5845.85 1602.49 99.958340 32.819828 66.392549 0.000000 0.000000 0.000000 0.000000 0.745963 0.000000 
5553.39 1602.19 99.959001 32.954845 66.265228 0.000000 0.000000 0.000000 0.000000 0.738928 0.000000 
5260.95 1601.88 99.959678 33.092535 66.135254 0.000000 0.000000 0.000000 0.000000 0.731889 0.000000 
4968.52 1601.58 99.960375 33.234577 66.000996 0.000000 0.000000 0.000000 0.000000 0.724802 0.000000 
4676.12 1601.28 99.961090 33.380288 65.863120 0.000000 0.000000 0.000000 0.000000 0.717682 0.000000 
4383.73 1600.98 99.961824 33.529790 65.721510 0.000000 0.000000 0.000000 0.000000 0.710524 0.000000 
4091.36 1600.68 99.962578 33.683193 65.576063 0.000000 0.000000 0.000000 0.000000 0.703323 0.000000 
3799.00 1600.38 99.963351 33.840619 65.426660 0.000000 0.000000 0.000000 0.000000 0.696072 0.000000 
3506.67 1600.07 99.964144 34.001315 65.274041 0.000000 0.000000 0.000000 0.000000 0.688789 0.000000 
3214.35 1599.77 99.964960 34.167133 65.116405 0.000000 0.000000 0.000000 0.000000 0.681422 0.000000 
2922.05 1599.47 99.965797 34.337345 64.954464 0.000000 0.000000 0.000000 0.000000 0.673988 0.000000 
2629.76 1599.17 99.966656 34.512091 64.788086 0.000000 0.000000 0.000000 0.000000 0.666479 0.000000 
2337.50 1598.87 99.967539 34.691496 64.617156 0.000000 0.000000 0.000000 0.000000 0.658887 0.000000 
2045.25 1598.56 99.968443 34.874778 64.442435 0.000000 0.000000 0.000000 0.000000 0.651230 0.000000 
1753.02 1598.26 99.969372 35.063933 64.261989 0.000000 0.000000 0.000000 0.000000 0.643450 0.000000 
1460.80 1597.96 99.970326 35.258198 64.076565 0.000000 0.000000 0.000000 0.000000 0.635563 0.000000 
1168.61 1597.66 99.971306 35.457712 63.886034 0.000000 0.000000 0.000000 0.000000 0.627560 0.000000 
