Title: Sanloup as cited by Taylor et al. (2014)

System Thermodynamic Data:
Pressure Temperature mass F phi S H V dVdP*10^6 dVdT*10^6 Cp logfO2(absolute) logfO2-QFM rhol rhos viscosity aH2O chisqr
99995.30 2109.44 100.018870 0.0320906279244114 0.036782 275.394087 -844919.069923 28.743779 -12.595809 698.829777 119.646279 -3.297 0.000 3.035877 3.496617 -0.540 0 0.000
99697.60 2108.92 100.018985 0.0321885838318897 0.036883 275.389150 -845787.558011 28.748863 -12.625820 701.775482 119.675140 -3.300 0.000 3.036238 3.496017 -0.538 0 0.000
99399.90 2108.40 100.019102 0.0322882388214577 0.036987 275.384438 -846655.755089 28.753977 -12.655391 704.706023 119.704054 -3.303 0.000 3.036566 3.495416 -0.535 0 0.000
99102.20 2107.89 100.019220 0.0323905621046674 0.037094 275.380636 -847522.217162 28.759129 -12.684456 707.609505 119.733092 -3.305 0.000 3.036881 3.494811 -0.533 0 0.000
98804.60 2107.37 100.019339 0.0324938142868244 0.037202 275.376383 -848389.528030 28.764300 -12.713062 710.506233 119.762113 -3.308 0.000 3.037143 3.494208 -0.531 0 0.000
98506.90 2106.85 100.019461 0.0325990648106435 0.037313 275.372385 -849256.776326 28.769504 -12.741160 713.385835 119.791208 -3.311 0.000 3.037374 3.493602 -0.529 0 0.000
98209.30 2106.33 100.019584 0.0327063023659345 0.037426 275.368629 -850123.415839 28.774737 -12.768706 716.245777 119.820360 -3.314 0.000 3.037572 3.492996 -0.527 0 0.000
97911.70 2105.81 100.019709 0.0328156728159329 0.037543 275.365133 -850989.698758 28.780004 -12.795680 719.085809 119.849584 -3.317 0.000 3.037738 3.492388 -0.526 0 0.000
97614.10 2105.30 100.019836 0.0329282097210602 0.037663 275.362587 -851854.174286 28.785314 -12.822003 721.893654 119.878952 -3.320 0.000 3.037888 3.491778 -0.524 0 0.000
97316.50 2104.78 100.019965 0.0330421588796376 0.037785 275.359635 -852719.698410 28.790649 -12.847740 724.690576 119.908331 -3.323 0.000 3.037989 3.491167 -0.522 0 0.000
97018.90 2104.26 100.020096 0.0331585539527816 0.037910 275.356969 -853584.820128 28.796019 -12.872811 727.464255 119.937794 -3.325 0.000 3.038058 3.490554 -0.520 0 0.000
96721.40 2103.74 100.020229 0.0332774516450794 0.038038 275.354585 -854449.257682 28.801424 -12.897175 730.212770 119.967335 -3.328 0.000 3.038095 3.489940 -0.519 0 0.000
96423.80 2103.22 100.020364 0.0333990844883431 0.038170 275.352515 -855313.524896 28.806868 -12.920811 732.936328 119.996981 -3.331 0.000 3.038100 3.489325 -0.517 0 0.000
96126.30 2102.70 100.020501 0.0335234612640889 0.038305 275.350746 -856177.073619 28.812349 -12.943668 735.632204 120.026715 -3.334 0.000 3.038074 3.488707 -0.515 0 0.000
95828.80 2102.18 100.020641 0.0336507691310693 0.038444 275.349299 -857040.150917 28.817870 -12.965716 738.299776 120.056552 -3.337 0.000 3.038016 3.488088 -0.514 0 0.000
95531.30 2101.67 100.020782 0.0337821518445102 0.038588 275.348870 -857901.294033 28.823443 -12.986848 740.926073 120.086572 -3.340 0.000 3.037944 3.487465 -0.512 0 0.000
95233.80 2101.15 100.020926 0.0339157468431393 0.038735 275.348098 -858763.369712 28.829047 -13.007152 743.532743 120.116633 -3.343 0.000 3.037825 3.486842 -0.511 0 0.000
94936.30 2100.63 100.021072 0.0340526983523349 0.038885 275.347679 -859624.915084 28.834694 -13.026521 746.106770 120.146816 -3.346 0.000 3.037676 3.486217 -0.510 0 0.000
94638.90 2100.11 100.021220 0.0341930943717317 0.039040 275.347612 -860485.645153 28.840384 -13.044905 748.645957 120.177113 -3.348 0.000 3.037497 3.485590 -0.509 0 0.000
94341.50 2099.59 100.021370 0.0343371586247911 0.039200 275.347921 -861345.802676 28.846120 -13.062264 751.149364 120.207543 -3.351 0.000 3.037289 3.484960 -0.507 0 0.000
94044.10 2099.07 100.021523 0.0344850582277653 0.039364 275.348618 -862205.365270 28.851903 -13.078548 753.615326 120.238112 -3.354 0.000 3.037052 3.484328 -0.506 0 0.000
93746.70 2098.55 100.021678 0.0346369671486166 0.039533 275.349714 -863064.309837 28.857735 -13.093709 756.042122 120.268828 -3.357 0.000 3.036788 3.483694 -0.505 0 0.000
93449.30 2098.03 100.021836 0.0347930663579570 0.039707 275.351222 -863922.612563 28.863618 -13.107693 758.427972 120.299696 -3.360 0.000 3.036496 3.483057 -0.505 0 0.000
93151.90 2097.51 100.021996 0.0349535439678187 0.039886 275.353156 -864780.248921 28.869551 -13.120446 760.771039 120.330724 -3.363 0.000 3.036178 3.482418 -0.504 0 0.000
92854.60 2096.99 100.022159 0.0351185192366064 0.040070 275.355515 -865636.931149 28.875536 -13.131912 763.068878 120.361907 -3.366 0.000 3.035834 3.481776 -0.503 0 0.000
92557.20 2096.48 100.022324 0.0352894950924776 0.040262 275.359035 -866491.698897 28.881591 -13.141936 765.308246 120.393358 -3.369 0.000 3.035479 3.481129 -0.503 0 0.000
92259.90 2095.96 100.022492 0.0354642446243207 0.040458 275.362313 -867346.918380 28.887686 -13.150652 767.510766 120.424899 -3.371 0.000 3.035086 3.480481 -0.502 0 0.000
91962.60 2095.44 100.022662 0.0356441946303464 0.040660 275.366070 -868201.367074 28.893840 -13.157905 769.662624 120.456631 -3.374 0.000 3.034671 3.479830 -0.502 0 0.000
91665.30 2094.92 100.022835 0.0358295698270218 0.040869 275.370322 -869055.017185 28.900052 -13.163633 771.761707 120.488561 -3.377 0.000 3.034234 3.479176 -0.502 0 0.000
91368.00 2094.40 100.023010 0.0360206022868105 0.041084 275.375082 -869907.840359 28.906326 -13.167770 773.805857 120.520698 -3.380 0.000 3.033776 3.478518 -0.501 0 0.000
91070.80 2093.88 100.023188 0.0362174423498570 0.041306 275.380352 -870759.547040 28.912661 -13.170253 775.792436 120.553039 -3.383 0.000 3.033300 3.477857 -0.501 0 0.000
90773.50 2093.36 100.023369 0.0364205119553277 0.041535 275.386175 -871610.629668 28.919062 -13.171011 777.720083 120.585615 -3.386 0.000 3.032806 3.477193 -0.502 0 0.000
90476.30 2092.84 100.023552 0.0366298837896500 0.041772 275.392538 -872460.537546 28.925526 -13.169981 779.585679 120.618413 -3.389 0.000 3.032296 3.476525 -0.502 0 0.000
90179.10 2092.32 100.023738 0.0368459064906726 0.042016 275.399470 -873309.501453 28.932059 -13.167091 781.387345 120.651452 -3.392 0.000 3.031772 3.475852 -0.502 0 0.000
89881.90 2091.80 100.023926 0.0370688459977395 0.042268 275.406987 -874157.491278 28.938661 -13.162270 783.122750 120.684742 -3.395 0.000 3.031235 3.475176 -0.503 0 0.000
89584.70 2091.28 100.024117 0.0372989741432859 0.042529 275.415105 -875004.476829 28.945334 -13.155449 784.789545 120.718293 -3.398 0.000 3.030688 3.474496 -0.503 0 0.000
89287.60 2090.76 100.024310 0.0375364628669204 0.042797 275.423822 -875850.169494 28.952077 -13.146560 786.385097 120.752101 -3.400 0.000 3.030132 3.473812 -0.504 0 0.000
88990.40 2090.24 100.024506 0.0377818019094706 0.043075 275.433186 -876695.056588 28.958897 -13.135523 787.907646 120.786200 -3.403 0.000 3.029569 3.473123 -0.505 0 0.000
88693.30 2089.72 100.024704 0.0380350637962751 0.043362 275.443180 -877538.591944 28.965791 -13.122277 789.354325 120.820575 -3.406 0.000 3.029002 3.472429 -0.506 0 0.000
88396.20 2089.20 100.024905 0.0382966437050763 0.043658 275.453834 -878381.004782 28.972761 -13.106748 790.723108 120.855247 -3.409 0.000 3.028432 3.471731 -0.508 0 0.000
88099.10 2088.68 100.025108 0.0385668344694610 0.043963 275.465163 -879222.266460 28.979811 -13.088865 792.011726 120.890227 -3.412 0.000 3.027863 3.471028 -0.509 0 0.000
87802.00 2088.16 100.025313 0.0388459311708967 0.044279 275.477181 -880062.349084 28.986941 -13.068559 793.217961 120.925523 -3.415 0.000 3.027297 3.470319 -0.511 0 0.000
87505.00 2087.64 100.025520 0.0391341047657732 0.044605 275.489885 -880900.969880 28.994150 -13.045776 794.339561 120.961131 -3.418 0.000 3.026736 3.469606 -0.512 0 0.000
87207.90 2087.12 100.025729 0.0394318999593836 0.044941 275.503321 -881738.614969 29.001444 -13.020428 795.374679 120.997088 -3.421 0.000 3.026183 3.468887 -0.514 0 0.000
86910.90 2086.60 100.025940 0.0397393587085821 0.045288 275.517467 -882574.748568 29.008819 -12.992479 796.321169 121.033375 -3.424 0.000 3.025641 3.468163 -0.516 0 0.000
86613.90 2086.08 100.026153 0.0400569026180838 0.045647 275.532352 -883409.603132 29.016279 -12.961857 797.177251 121.070015 -3.427 0.000 3.025113 3.467433 -0.518 0 0.000
86316.80 2085.56 100.026367 0.0403849675336162 0.046016 275.548006 -884243.410631 29.023827 -12.928490 797.941126 121.107030 -3.430 0.000 3.024601 3.466697 -0.521 0 0.000
86019.90 2085.04 100.026583 0.0407234213563519 0.046397 275.564384 -885075.389435 29.031456 -12.892374 798.611276 121.144387 -3.433 0.000 3.024109 3.465956 -0.523 0 0.000
85722.90 2084.52 100.026801 0.0410729776912765 0.046791 275.581548 -885906.282446 29.039175 -12.853412 799.186096 121.182137 -3.435 0.000 3.023640 3.465208 -0.526 0 0.000
85425.90 2084.00 100.027020 0.0414337811046189 0.047196 275.599491 -886735.819153 29.046980 -12.811577 799.664283 121.220274 -3.438 0.000 3.023196 3.464454 -0.529 0 0.000
85129.00 2083.48 100.027240 0.0418059548108924 0.047614 275.618199 -887563.733005 29.054871 -12.766850 800.044838 121.258791 -3.441 0.000 3.022781 3.463695 -0.532 0 0.000
84832.10 2082.96 100.027460 0.0421899267875110 0.048044 275.637698 -888390.263806 29.062849 -12.719176 800.326632 121.297710 -3.444 0.000 3.022397 3.462929 -0.535 0 0.000
84535.20 2082.44 100.027682 0.0425859709204764 0.048487 275.657993 -889215.400474 29.070915 -12.668527 800.508815 121.337039 -3.447 0.000 3.022048 3.462156 -0.538 0 0.000
84238.30 2081.92 100.027905 0.0429943570726884 0.048944 275.679089 -890039.133778 29.079068 -12.614875 800.590706 121.376786 -3.450 0.000 3.021736 3.461377 -0.541 0 0.000
83941.40 2081.40 100.028127 0.0434153513004259 0.049413 275.700991 -890861.456271 29.087309 -12.558201 800.571793 121.416958 -3.453 0.000 3.021464 3.460591 -0.545 0 0.000
83644.50 2080.88 100.028351 0.0438492162366719 0.049897 275.723699 -891682.362203 29.095636 -12.498489 800.451731 121.457563 -3.456 0.000 3.021235 3.459799 -0.548 0 0.000
83347.70 2080.36 100.028574 0.0442960229370424 0.050394 275.747197 -892501.599003 29.104046 -12.435753 800.230750 121.498591 -3.459 0.000 3.021051 3.459000 -0.552 0 0.000
83050.90 2079.84 100.028798 0.0447562070922009 0.050905 275.771505 -893319.413424 29.112542 -12.369962 799.908482 121.540066 -3.462 0.000 3.020915 3.458195 -0.556 0 0.000
82754.10 2079.32 100.029022 0.0452300246833510 0.051430 275.796626 -894135.803965 29.121123 -12.301111 799.485040 121.581995 -3.465 0.000 3.020830 3.457382 -0.560 0 0.000
82457.30 2078.80 100.029245 0.0457177313815555 0.051970 275.822559 -894950.770175 29.129787 -12.229202 798.960670 121.624385 -3.468 0.000 3.020797 3.456563 -0.564 0 0.000
82160.50 2078.27 100.029468 0.0462173566529064 0.052522 275.848541 -895765.894339 29.138513 -12.154612 798.355238 121.667116 -3.471 0.000 3.020811 3.455739 -0.568 0 0.000
81863.70 2077.75 100.029691 0.0467335665283905 0.053091 275.876098 -896578.018385 29.147342 -12.076607 797.630480 121.710450 -3.474 0.000 3.020889 3.454906 -0.572 0 0.000
81567.00 2077.23 100.029913 0.0472642193579831 0.053676 275.904443 -897388.475895 29.156249 -11.995594 796.806835 121.754252 -3.477 0.000 3.021025 3.454066 -0.577 0 0.000
81270.20 2076.71 100.030135 0.0478100198099668 0.054275 275.933625 -898197.759000 29.165239 -11.911516 795.883685 121.798563 -3.480 0.000 3.021221 3.453219 -0.581 0 0.000
80973.50 2076.19 100.030356 0.0483707903635463 0.054890 275.963595 -899005.379614 29.174305 -11.824453 794.863047 121.843358 -3.482 0.000 3.021478 3.452366 -0.585 0 0.000
80676.80 2075.67 100.030576 0.0489470329847127 0.055521 275.994378 -899811.583815 29.183450 -11.734384 793.745005 121.888664 -3.485 0.000 3.021797 3.451505 -0.590 0 0.000
80380.10 2075.15 100.030795 0.0495390366724320 0.056168 276.025974 -900616.372060 29.192671 -11.641319 792.530311 121.934489 -3.488 0.000 3.022179 3.450638 -0.594 0 0.000
80083.50 2074.63 100.031014 0.0501468481738652 0.056831 276.058360 -901419.501776 29.201965 -11.545312 791.220555 121.980826 -3.491 0.000 3.022624 3.449764 -0.599 0 0.000
79786.80 2074.11 100.031231 0.0507712780937962 0.057510 276.091586 -902221.456539 29.211338 -11.446293 789.814856 122.027722 -3.494 0.000 3.023135 3.448882 -0.604 0 0.000
79490.20 2073.59 100.031448 0.0514121390575647 0.058206 276.125606 -903021.749836 29.220781 -11.344355 788.315640 122.075151 -3.497 0.000 3.023711 3.447994 -0.608 0 0.000
79193.60 2073.06 100.031663 0.0520672836133093 0.058917 276.159657 -903822.251267 29.230273 -11.239952 786.744971 122.122995 -3.500 0.000 3.024346 3.447101 -0.613 0 0.000
78897.00 2072.54 100.031878 0.0527424887237962 0.059647 276.195321 -904619.697463 29.239864 -11.132128 785.059330 122.171561 -3.503 0.000 3.025053 3.446199 -0.618 0 0.000
78600.40 2072.02 100.032092 0.0534354445409503 0.060396 276.231816 -905415.707115 29.249527 -11.021361 783.281219 122.220716 -3.506 0.000 3.025825 3.445290 -0.622 0 0.000
78303.80 2071.50 100.032305 0.0541465431344826 0.061162 276.269148 -906210.270734 29.259262 -10.907654 781.411125 122.270476 -3.509 0.000 3.026663 3.444373 -0.627 0 0.000
78007.20 2070.98 100.032517 0.0548761967409333 0.061947 276.307324 -907003.376735 29.269070 -10.791003 779.449448 122.320854 -3.512 0.000 3.027567 3.443450 -0.632 0 0.000
77710.70 2070.46 100.032728 0.0556245299458587 0.062751 276.346326 -907794.773750 29.278946 -10.671453 777.397615 122.371847 -3.515 0.000 3.028535 3.442519 -0.636 0 0.000
77414.20 2069.94 100.032938 0.0563922924653920 0.063574 276.386190 -908584.684411 29.288894 -10.548949 775.254774 122.423491 -3.518 0.000 3.029567 3.441581 -0.641 0 0.000
77117.70 2069.41 100.033147 0.0571767832318061 0.064413 276.426116 -909374.761656 29.298886 -10.424049 773.045267 122.475640 -3.521 0.000 3.030658 3.440639 -0.646 0 0.000
76821.20 2068.89 100.033356 0.0579847971298680 0.065276 276.467735 -910161.647695 29.308978 -10.295605 770.720864 122.528639 -3.524 0.000 3.031818 3.439686 -0.650 0 0.000
76524.70 2068.37 100.033564 0.0588137522743252 0.066160 276.510253 -910946.984225 29.319143 -10.164156 768.305361 122.582346 -3.527 0.000 3.033041 3.438726 -0.655 0 0.000
76228.30 2067.85 100.033772 0.0596638558676374 0.067065 276.553656 -911730.510479 29.329378 -10.029733 765.799780 122.636761 -3.530 0.000 3.034324 3.437758 -0.659 0 0.000
75931.80 2067.33 100.033979 0.0605363847371479 0.067991 276.598018 -912512.666859 29.339690 -9.892195 763.201139 122.691949 -3.533 0.000 3.035670 3.436783 -0.664 0 0.000
75635.40 2066.80 100.034186 0.0614276884101767 0.068936 276.642470 -913294.658082 29.350044 -9.752264 760.537424 122.747710 -3.536 0.000 3.037069 3.435802 -0.668 0 0.000
75339.00 2066.28 100.034393 0.0623457896393456 0.069908 276.688714 -914073.281700 29.360502 -9.608578 757.755226 122.804445 -3.539 0.000 3.038533 3.434811 -0.673 0 0.000
75042.60 2065.76 100.034599 0.0632878880299435 0.070904 276.735945 -914850.197863 29.371038 -9.461721 754.879272 122.862005 -3.542 0.000 3.040054 3.433811 -0.677 0 0.000
74746.20 2065.24 100.034806 0.0642546910263379 0.071924 276.784186 -915625.366133 29.381653 -9.311646 751.908608 122.920415 -3.545 0.000 3.041633 3.432804 -0.682 0 0.000
74449.80 2064.72 100.035012 0.0652469392500731 0.072969 276.833461 -916398.743142 29.392347 -9.158301 748.842141 122.979704 -3.548 0.000 3.043267 3.431787 -0.686 0 0.000
74153.50 2064.19 100.035219 0.0662609914807439 0.074035 276.882914 -917171.796729 29.403086 -9.002412 745.707973 123.039682 -3.551 0.000 3.044950 3.430765 -0.690 0 0.000
73857.10 2063.67 100.035426 0.0673063802740768 0.075133 276.934329 -917941.458679 29.413944 -8.842373 742.446527 123.100815 -3.554 0.000 3.046692 3.429731 -0.695 0 0.000
73560.80 2063.15 100.035634 0.0683792000301321 0.076257 276.986825 -918708.954045 29.424883 -8.678951 739.086853 123.162895 -3.557 0.000 3.048486 3.428688 -0.699 0 0.000
73264.50 2062.63 100.035842 0.0694807501305359 0.077410 277.040465 -919474.457085 29.435908 -8.512012 735.625754 123.225980 -3.560 0.000 3.050330 3.427636 -0.703 0 0.000
72968.30 2062.11 100.036051 0.0706114848608690 0.078591 277.095245 -920237.683623 29.447018 -8.341554 732.063214 123.290078 -3.563 0.000 3.052224 3.426575 -0.707 0 0.000
72672.00 2061.58 100.036261 0.0717687515253250 0.079798 277.150393 -921000.815343 29.458190 -8.168163 728.423883 123.355061 -3.566 0.000 3.054162 3.425505 -0.711 0 0.000
72375.70 2061.06 100.036472 0.0729620267159609 0.081042 277.207651 -921759.992243 29.469488 -7.990237 724.648031 123.421369 -3.569 0.000 3.056152 3.424423 -0.715 0 0.000
72079.50 2060.54 100.036685 0.0741874299436359 0.082316 277.266151 -922516.703976 29.480878 -7.808554 720.764912 123.488803 -3.572 0.000 3.058187 3.423331 -0.719 0 0.000
71783.30 2060.02 100.036898 0.0754465108301758 0.083624 277.325965 -923271.106167 29.492366 -7.622954 716.770535 123.557431 -3.575 0.000 3.060267 3.422228 -0.723 0 0.000
71487.10 2059.49 100.037113 0.0767353579865301 0.084960 277.386237 -924024.959567 29.503919 -7.434229 712.694605 123.627058 -3.578 0.000 3.062387 3.421116 -0.726 0 0.000
71190.90 2058.97 100.037330 0.0780650351161435 0.086338 277.448791 -924774.534949 29.515612 -7.240537 708.471260 123.698195 -3.581 0.000 3.064553 3.419990 -0.730 0 0.000
70894.70 2058.45 100.037549 0.0794318420458123 0.087751 277.512778 -925521.576380 29.527411 -7.042646 704.129499 123.770657 -3.584 0.000 3.066760 3.418852 -0.734 0 0.000
70598.60 2057.92 100.037769 0.0808309830610496 0.089196 277.577292 -926267.655851 29.539276 -6.841496 699.702655 123.844209 -3.587 0.000 3.069002 3.417705 -0.737 0 0.000
70302.40 2057.40 100.037993 0.0822756125167553 0.090686 277.644270 -927009.401572 29.551297 -6.634935 695.117059 123.919457 -3.590 0.000 3.071287 3.416542 -0.741 0 0.000
70006.30 2056.88 100.038218 0.0837605644603105 0.092215 277.712776 -927748.151534 29.563427 -6.423965 690.407526 123.996145 -3.593 0.000 3.073608 3.415366 -0.744 0 0.000
69710.20 2056.36 100.038446 0.0852877575027725 0.093786 277.782892 -928484.037633 29.575677 -6.208400 685.569286 124.074353 -3.596 0.000 3.075966 3.414176 -0.748 0 0.000
69414.10 2055.83 100.038677 0.0868524683753970 0.095393 277.853724 -929218.898061 29.588006 -5.989191 680.636069 124.153856 -3.599 0.000 3.078355 3.412975 -0.751 0 0.000
69118.00 2055.31 100.038911 0.0884681266248253 0.097050 277.927196 -929948.806971 29.600501 -5.764160 675.533191 124.235258 -3.602 0.000 3.080781 3.411757 -0.754 0 0.000
68822.00 2054.79 100.039148 0.0901295592287781 0.098752 278.002380 -930675.374867 29.613117 -5.534334 670.296209 124.318308 -3.605 0.000 3.083238 3.410524 -0.758 0 0.000
68525.90 2054.26 100.039387 0.0918329215913860 0.100494 278.078442 -931400.906849 29.625826 -5.300561 664.956346 124.402831 -3.608 0.000 3.085724 3.409278 -0.761 0 0.000
68229.90 2053.74 100.039631 0.0935914219205582 0.102291 278.157270 -932120.962318 29.638705 -5.060705 659.439754 124.489406 -3.611 0.000 3.088243 3.408013 -0.764 0 0.000
67933.90 2053.22 100.039879 0.0954007814910570 0.104137 278.237996 -932837.618249 29.651719 -4.815692 653.779525 124.577834 -3.614 0.000 3.090790 3.406732 -0.767 0 0.000
67637.90 2052.69 100.040130 0.0972552403569233 0.106027 278.319677 -933552.810787 29.664827 -4.566672 648.014569 124.667850 -3.617 0.000 3.093362 3.405437 -0.770 0 0.000
67341.90 2052.17 100.040386 0.0991706392721236 0.107976 278.404338 -934262.418374 29.678120 -4.311149 642.061786 124.760150 -3.620 0.000 3.095963 3.404120 -0.773 0 0.000
67046.00 2051.65 100.040646 0.1011406239189863 0.109978 278.490993 -934968.161028 29.691551 -4.050373 635.962548 124.854441 -3.623 0.000 3.098588 3.402785 -0.776 0 0.000
66750.00 2051.13 100.040910 0.1031682974797272 0.112036 278.579782 -935670.360270 29.705131 -3.784076 629.709886 124.950858 -3.626 0.000 3.101239 3.401431 -0.779 0 0.000
66454.10 2050.60 100.041179 0.1052452958416698 0.114141 278.669622 -936370.639047 29.718804 -3.513811 623.353135 125.049021 -3.629 0.000 3.103908 3.400062 -0.781 0 0.000
66158.20 2050.08 100.041453 0.1073900356435189 0.116312 278.762655 -937064.936954 29.732673 -3.236758 616.800597 125.149737 -3.632 0.000 3.106602 3.398668 -0.784 0 0.000
65862.30 2049.55 100.041731 0.1095872570400026 0.118533 278.856844 -937757.414870 29.746640 -2.955679 610.142312 125.252331 -3.635 0.000 3.109313 3.397258 -0.787 0 0.000
