Title: Allan et al. 1989 (see Ghiorso 1997)

System Thermodynamic Data:
Pressure Temperature mass F phi S H V dVdP*10^6 dVdT*10^6 Cp logfO2(absolute) logfO2-QFM rhol rhos viscosity aH2O chisqr
99997.40 1873.25 100.269875 0.0108357120417572 -2.143496 223.825479 -1060914.292260 8.769912 -796.176587 11078.102986 119.311801 -4.758 0.000 -0.057798 3.597748 -1.399 8.63773e-85 0.000
99576.70 1872.45 100.269903 0.0109481674527061 -2.030983 224.246386 -1060502.365661 9.095836 -787.740371 10984.363051 119.307630 -4.763 0.000 -0.059424 3.597191 -1.384 7.17562e-83 0.000
99155.90 1871.66 100.269932 0.0110645125428810 -1.927253 224.664285 -1060110.144447 9.418517 -779.344294 10891.050049 119.303727 -4.769 0.000 -0.061120 3.596632 -1.369 5.56766e-81 0.000
98735.20 1870.86 100.269961 0.0111837793530997 -1.831434 225.077486 -1059740.452724 9.737590 -770.997140 10798.239672 119.299948 -4.775 0.000 -0.062881 3.596073 -1.353 4.00755e-79 0.000
98314.50 1870.07 100.269990 0.0113071709364026 -1.742581 225.487615 -1059390.194877 10.053378 -762.692152 10705.879164 119.296440 -4.780 0.000 -0.064717 3.595513 -1.337 2.69503e-77 0.000
97893.90 1869.27 100.270019 0.0114337414863858 -1.660046 225.893098 -1059062.056874 10.365602 -754.435994 10614.021115 119.293061 -4.786 0.000 -0.066626 3.594953 -1.320 1.68399e-75 0.000
97473.30 1868.48 100.270049 0.0115647298416873 -1.583112 226.295558 -1058752.957650 10.674579 -746.221972 10522.613348 119.289957 -4.791 0.000 -0.068619 3.594392 -1.304 9.84461e-74 0.000
97052.70 1867.68 100.270078 0.0116992180954877 -1.511285 226.693533 -1058465.480058 10.980109 -738.054706 10431.686149 119.286987 -4.797 0.000 -0.070693 3.593832 -1.287 5.36132e-72 0.000
96632.10 1866.89 100.270107 0.0118384432560857 -1.444032 227.088534 -1058196.658945 11.282430 -729.929565 10341.209988 119.284298 -4.802 0.000 -0.072860 3.593270 -1.269 2.73533e-70 0.000
96211.60 1866.09 100.270137 0.0119814285746633 -1.380995 227.478991 -1057949.159013 11.581271 -721.853088 10251.236551 119.281748 -4.808 0.000 -0.075116 3.592709 -1.252 1.30078e-68 0.000
95791.10 1865.30 100.270166 0.0121294935058186 -1.321737 227.866526 -1057719.926725 11.876940 -713.818703 10161.714812 119.279484 -4.813 0.000 -0.077476 3.592147 -1.234 5.803e-67 0.000
95370.70 1864.50 100.270196 0.0122816437676983 -1.265988 228.249570 -1057511.616887 12.169174 -705.832886 10072.696028 119.277365 -4.819 0.000 -0.079935 3.591586 -1.216 2.41677e-65 0.000
94950.30 1863.71 100.270226 0.0124392439089579 -1.213399 228.629742 -1057321.189062 12.458275 -697.889127 9984.129741 119.275539 -4.825 0.000 -0.082510 3.591023 -1.197 9.45499e-64 0.000
94529.90 1862.91 100.270256 0.0126013309759088 -1.163749 229.005578 -1057151.224112 12.744053 -689.991925 9896.045620 119.273864 -4.830 0.000 -0.085197 3.590462 -1.178 3.46159e-62 0.000
94109.60 1862.11 100.270285 0.0127686219931838 -1.116796 229.377746 -1057000.210878 13.026563 -682.140905 9808.450654 119.272416 -4.836 0.000 -0.088006 3.589900 -1.159 1.18846e-60 0.000
93689.20 1861.32 100.270316 0.0129420289950412 -1.072292 229.747219 -1056866.455951 13.306066 -674.330005 9721.288844 119.271272 -4.841 0.000 -0.090952 3.589338 -1.139 3.84393e-59 0.000
93269.00 1860.52 100.270345 0.0131204020401995 -1.030117 230.112230 -1056752.706883 13.582171 -666.569349 9634.652436 119.270289 -4.847 0.000 -0.094029 3.588777 -1.119 1.16405e-57 0.000
92848.70 1859.73 100.270376 0.0133053425350271 -0.990036 230.474598 -1056655.846837 13.855306 -658.848797 9548.450614 119.269619 -4.853 0.000 -0.097259 3.588215 -1.099 3.32509e-56 0.000
92428.50 1858.93 100.270406 0.0134957289996405 -0.951947 230.832657 -1056578.554963 14.125154 -651.176508 9462.754185 119.269117 -4.858 0.000 -0.100638 3.587655 -1.078 8.91368e-55 0.000
92008.30 1858.13 100.270436 0.0136924685637936 -0.915685 231.187277 -1056519.214425 14.391904 -643.548365 9377.528793 119.268863 -4.864 0.000 -0.104181 3.587095 -1.057 2.25057e-53 0.000
91588.20 1857.34 100.270466 0.0138964012807448 -0.881121 231.539133 -1056476.295123 14.655607 -635.964018 9292.781585 119.268933 -4.870 0.000 -0.107904 3.586534 -1.035 5.3616e-52 0.000
91168.10 1856.54 100.270497 0.0141065414809247 -0.848158 231.886858 -1056452.336611 14.916154 -628.425945 9208.521002 119.269186 -4.875 0.000 -0.111805 3.585975 -1.014 1.20232e-50 0.000
90748.00 1855.74 100.270527 0.0143237990269961 -0.816676 232.231223 -1056445.775990 15.173662 -620.931944 9124.733856 119.269701 -4.881 0.000 -0.115902 3.585417 -0.991 2.54452e-49 0.000
90328.00 1854.95 100.270558 0.0145490714279865 -0.786576 232.572905 -1056455.072992 15.428184 -613.481660 9041.427277 119.270554 -4.887 0.000 -0.120213 3.584859 -0.969 5.09106e-48 0.000
89907.90 1854.15 100.270588 0.0147814098815909 -0.757780 232.910628 -1056482.763742 15.679672 -606.075750 8958.589953 119.271608 -4.892 0.000 -0.124741 3.584302 -0.946 9.61536e-47 0.000
89488.00 1853.35 100.270619 0.0150215792593626 -0.730216 233.244881 -1056527.340710 15.928059 -598.717434 8876.268811 119.272937 -4.898 0.000 -0.129502 3.583747 -0.922 1.71483e-45 0.000
89068.00 1852.56 100.270649 0.0152708236319434 -0.703777 233.576721 -1056587.190439 16.173640 -591.399180 8794.391493 119.274625 -4.904 0.000 -0.134522 3.583191 -0.899 2.90098e-44 0.000
88648.10 1851.76 100.270680 0.0155278719253724 -0.678432 233.904492 -1056664.922459 16.416128 -584.128785 8713.026250 119.276527 -4.909 0.000 -0.139801 3.582638 -0.875 4.63555e-43 0.000
88228.20 1850.96 100.270711 0.0157938404610886 -0.654098 234.229063 -1056758.964103 16.655697 -576.902315 8632.140761 119.278725 -4.915 0.000 -0.145364 3.582086 -0.850 7.01838e-42 0.000
87808.40 1850.16 100.270741 0.0160689892666534 -0.630724 234.550369 -1056869.136984 16.892309 -569.721499 8551.755722 119.281224 -4.921 0.000 -0.151229 3.581536 -0.825 1.0068e-40 0.000
87388.60 1849.37 100.270772 0.0163545354718417 -0.608241 234.869279 -1056993.876297 17.126132 -562.582470 8471.839413 119.284108 -4.926 0.000 -0.157427 3.580986 -0.800 1.37239e-39 0.000
86968.80 1848.57 100.270803 0.0166492870851799 -0.586616 235.184320 -1057135.772165 17.357005 -555.489388 8392.420440 119.287234 -4.932 0.000 -0.163961 3.580439 -0.774 1.77308e-38 0.000
86549.10 1847.77 100.270833 0.0169543058343313 -0.565800 235.496182 -1057293.253920 17.584984 -548.441858 8313.505753 119.290683 -4.938 0.000 -0.170864 3.579894 -0.748 2.1747e-37 0.000
86129.40 1846.97 100.270864 0.0172700687160167 -0.545743 235.804980 -1057466.152662 17.810144 -541.438132 8235.077724 119.294464 -4.944 0.000 -0.178161 3.579350 -0.721 2.53534e-36 0.000
85709.70 1846.18 100.270895 0.0175978383060220 -0.526398 236.111495 -1057652.909488 18.032592 -534.476145 8157.124665 119.298661 -4.949 0.000 -0.185893 3.578808 -0.695 2.81544e-35 0.000
85290.10 1845.38 100.270926 0.0179362456301304 -0.507747 236.414166 -1057856.095910 18.252120 -527.561671 8079.693735 119.303130 -4.955 0.000 -0.194064 3.578269 -0.667 2.96935e-34 0.000
84870.50 1844.58 100.270956 0.0182866573986293 -0.489743 236.713859 -1058074.170972 18.468889 -520.690938 8002.754456 119.307956 -4.961 0.000 -0.202722 3.577732 -0.639 2.98234e-33 0.000
84450.90 1843.78 100.270987 0.0186495262066949 -0.472352 237.010603 -1058306.961633 18.682921 -513.863932 7926.308712 119.313149 -4.966 0.000 -0.211901 3.577198 -0.611 2.85428e-32 0.000
84031.30 1842.98 100.271018 0.0190253210568129 -0.455545 237.304428 -1058554.295072 18.894234 -507.080642 7850.358456 119.318720 -4.972 0.000 -0.221639 3.576666 -0.583 2.60462e-31 0.000
83611.80 1842.18 100.271048 0.0194144153606822 -0.439295 237.595279 -1058815.961037 19.102797 -500.342695 7774.923886 119.324674 -4.978 0.000 -0.231978 3.576137 -0.554 2.26634e-30 0.000
83192.40 1841.39 100.271079 0.0198182805342958 -0.423570 237.883944 -1059090.387714 19.308714 -493.648052 7699.993632 119.331100 -4.984 0.000 -0.242976 3.575611 -0.524 1.88397e-29 0.000
82772.90 1840.59 100.271109 0.0202357325282745 -0.408349 238.169108 -1059380.258887 19.511942 -486.997439 7625.559891 119.337860 -4.989 0.000 -0.254661 3.575088 -0.495 1.49479e-28 0.000
82353.50 1839.79 100.271140 0.0206680315222940 -0.393609 238.451393 -1059683.928760 19.712482 -480.392090 7551.647736 119.345035 -4.995 0.000 -0.267097 3.574569 -0.464 1.13296e-27 0.000
81934.20 1838.99 100.271170 0.0211157254128765 -0.379327 238.730831 -1060001.215296 19.910358 -473.831964 7478.259114 119.352638 -5.001 0.000 -0.280342 3.574053 -0.434 8.20832e-27 0.000
81514.80 1838.19 100.271201 0.0215796480599140 -0.365476 239.007617 -1060332.044393 20.105685 -467.313852 7405.360904 119.360686 -5.007 0.000 -0.294471 3.573541 -0.403 5.69345e-26 0.000
81095.50 1837.39 100.271231 0.0220601393382384 -0.352041 239.281622 -1060676.138972 20.298388 -460.840931 7332.990814 119.369187 -5.013 0.000 -0.309549 3.573034 -0.371 3.77929e-25 0.000
80676.30 1836.59 100.271261 0.0225578092420013 -0.339004 239.552880 -1061033.316980 20.488489 -454.413166 7261.150994 119.378152 -5.018 0.000 -0.325656 3.572530 -0.340 2.40227e-24 0.000
80257.00 1835.79 100.271291 0.0230735844907533 -0.326339 239.821585 -1061403.522637 20.676102 -448.027414 7189.809267 119.387602 -5.024 0.000 -0.342889 3.572031 -0.307 1.4644e-23 0.000
79837.80 1834.99 100.271321 0.0236078451389503 -0.314037 240.087611 -1061786.459408 20.861154 -441.686793 7119.002807 119.397543 -5.030 0.000 -0.361338 3.571536 -0.275 8.55807e-23 0.000
79418.70 1834.19 100.271351 0.0241612700976720 -0.302081 240.350998 -1062181.944626 21.043667 -435.391273 7048.733961 119.407991 -5.036 0.000 -0.381112 3.571047 -0.242 4.79766e-22 0.000
78999.50 1833.39 100.271380 0.0247348891007635 -0.290449 240.611935 -1062589.939452 21.223752 -429.137779 6978.971493 119.418967 -5.042 0.000 -0.402341 3.570563 -0.208 2.58368e-21 0.000
78580.50 1832.59 100.271410 0.0253289569137614 -0.279136 240.870228 -1063010.053143 21.401296 -422.930884 6909.768715 119.430474 -5.047 0.000 -0.425147 3.570084 -0.175 1.33568e-20 0.000
78161.40 1831.79 100.271439 0.0259447352592816 -0.268119 241.126146 -1063442.326538 21.576452 -416.766025 6841.078067 119.442541 -5.053 0.000 -0.449696 3.569611 -0.140 6.64047e-20 0.000
77742.40 1830.99 100.271468 0.0265826785586804 -0.257390 241.379575 -1063886.431076 21.749153 -410.646226 6772.935774 119.455176 -5.059 0.000 -0.476148 3.569144 -0.106 3.1741e-19 0.000
77323.40 1830.19 100.271496 0.0272437822718577 -0.246934 241.630630 -1064342.265011 21.919465 -404.569985 6705.328155 119.468399 -5.065 0.000 -0.504701 3.568684 -0.071 1.46009e-18 0.000
76904.40 1829.39 100.271525 0.0279289014162289 -0.236739 241.879351 -1064809.650827 22.087406 -398.537316 6638.258273 119.482228 -5.071 0.000 -0.535571 3.568231 -0.036 6.46715e-18 0.000
76485.50 1828.59 100.271553 0.0286387191510567 -0.226795 242.125707 -1065288.321481 22.252958 -392.549696 6571.745292 119.496676 -5.077 0.000 -0.568996 3.567785 -0.000 2.75864e-17 0.000
76066.60 1827.79 100.271581 0.0293743363681795 -0.217090 242.369813 -1065778.180941 22.416183 -386.605663 6505.776050 119.511764 -5.082 0.000 -0.605263 3.567346 0.036 1.13428e-16 0.000
75647.70 1826.99 100.271608 0.0301366966908836 -0.207612 242.611712 -1066279.048863 22.577100 -380.705240 6440.353738 119.527512 -5.088 0.000 -0.644693 3.566916 0.072 4.49805e-16 0.000
75228.90 1826.19 100.271635 0.0309265512642750 -0.198354 242.851378 -1066790.647507 22.735693 -374.849882 6375.497231 119.543934 -5.094 0.000 -0.687640 3.566494 0.109 1.72062e-15 0.000
74810.10 1825.39 100.271661 0.0317451134031203 -0.189303 243.088929 -1067312.885580 22.892022 -369.038172 6311.193860 119.561052 -5.100 0.000 -0.734538 3.566082 0.146 6.35458e-15 0.000
74391.40 1824.59 100.271687 0.0325931806158899 -0.180452 243.324340 -1067845.478176 23.046069 -363.271550 6247.462288 119.578882 -5.106 0.000 -0.785863 3.565679 0.183 2.26629e-14 0.000
73972.60 1823.79 100.271712 0.0334722933355455 -0.171788 243.557801 -1068388.440205 23.197933 -357.547230 6184.274905 119.597455 -5.112 0.000 -0.842213 3.565287 0.220 7.81397e-14 0.000
73554.00 1822.98 100.271737 0.0343809449467114 -0.163314 243.788363 -1068942.708339 23.347452 -351.871288 6121.692773 119.616678 -5.118 0.000 -0.904137 3.564906 0.258 2.60171e-13 0.000
73135.30 1822.18 100.271761 0.0353246840320644 -0.155004 244.017860 -1069505.541721 23.494899 -346.235895 6059.649421 119.636776 -5.124 0.000 -0.972617 3.564535 0.296 8.38973e-13 0.000
72716.70 1821.38 100.271784 0.0363023547865650 -0.146859 244.245419 -1070077.967569 23.640154 -340.645714 5998.190358 119.657665 -5.129 0.000 -1.048487 3.564177 0.335 2.61802e-12 0.000
72298.10 1820.58 100.271807 0.0373154242070020 -0.138870 244.471162 -1070659.901050 23.783272 -335.099416 5937.303850 119.679371 -5.135 0.000 -1.132891 3.563832 0.373 7.91192e-12 0.000
71879.60 1819.78 100.271828 0.0383648462835547 -0.131030 244.695076 -1071251.035107 23.924243 -329.598411 5877.007868 119.701909 -5.141 0.000 -1.227164 3.563501 0.412 2.31619e-11 0.000
71461.00 1818.98 100.271849 0.0394524951595724 -0.123329 244.917353 -1071851.402794 24.063156 -324.140068 5817.276597 119.725313 -5.147 0.000 -1.333014 3.563184 0.451 6.57508e-11 0.000
71042.60 1818.17 100.271868 0.0405765033317580 -0.115771 245.137047 -1072461.914263 24.199865 -318.730275 5758.168291 119.749482 -5.153 0.000 -1.452250 3.562882 0.490 1.80828e-10 0.000
70624.10 1817.37 100.271887 0.0417436678419935 -0.108331 245.356020 -1073079.813405 24.334628 -313.361485 5699.620170 119.774661 -5.159 0.000 -1.587788 3.562597 0.529 4.83023e-10 0.000
70205.70 1816.57 100.271904 0.0429525776238577 -0.101012 245.573398 -1073706.112587 24.467333 -308.038235 5641.675891 119.800756 -5.165 0.000 -1.742647 3.562329 0.569 1.25235e-09 0.000
69787.30 1815.77 100.271920 0.0442050540924620 -0.093805 245.789314 -1074340.727961 24.598037 -302.759292 5584.324943 119.827798 -5.171 0.000 -1.920987 3.562080 0.608 3.15395e-09 0.000
69369.00 1814.97 100.271934 0.0455023032772143 -0.086706 246.003764 -1074983.327874 24.726731 -297.526032 5527.584944 119.855801 -5.177 0.000 -2.128134 3.561850 0.648 7.71732e-09 0.000
68950.70 1814.16 100.271947 0.0468435771196314 -0.079711 246.216067 -1075635.307859 24.853403 -292.339044 5471.456918 119.884689 -5.183 0.000 -2.370965 3.561642 0.688 1.835e-08 0.000
68532.40 1813.36 100.271958 0.0482359770243513 -0.072803 246.427920 -1076293.500355 24.978211 -287.194848 5415.923195 119.914703 -5.189 0.000 -2.659743 3.561455 0.728 4.24659e-08 0.000
68114.20 1812.56 100.271967 0.0496782859908116 -0.065983 246.638517 -1076959.034591 25.101082 -282.096594 5361.012670 119.945752 -5.195 0.000 -3.007618 3.561292 0.768 9.56214e-08 0.000
67696.00 1811.75 100.271974 0.0511697554086228 -0.059248 246.847172 -1077633.318690 25.222004 -277.044905 5306.727177 119.977758 -5.201 0.000 -3.433497 3.561153 0.808 2.09537e-07 0.000
67277.80 1810.95 100.271979 0.0527184401848480 -0.052581 247.055612 -1078313.138930 25.341135 -272.036332 5253.050836 120.010978 -5.207 0.000 -3.967227 3.561042 0.848 4.47495e-07 0.000
66859.60 1810.15 100.271982 0.0543235765680139 -0.045980 247.263094 -1078999.760081 25.458434 -267.072777 5199.999994 120.045330 -5.213 0.000 -4.653325 3.560959 0.888 9.31355e-07 0.000
66441.50 1809.35 100.271982 0.0559870235115773 -0.039442 247.469637 -1079692.811787 25.573899 -262.155567 5147.593494 120.080837 -5.219 0.000 -5.565618 3.560905 0.928 1.88956e-06 0.000
66023.50 1808.54 100.271980 0.0577076466693985 -0.032965 247.674485 -1080393.577750 25.687492 -257.286562 5095.847393 120.117411 -5.225 0.000 -6.833366 3.560884 0.968 3.73716e-06 0.000
65605.40 1807.74 100.271975 0.0594960688164092 -0.026528 247.879544 -1081099.044827 25.799428 -252.459950 5044.724153 120.155358 -5.231 0.000 -8.716826 3.560897 1.009 7.21735e-06 0.000
65187.40 1806.93 100.271967 0.0613468468226282 -0.020139 248.083087 -1081811.744029 25.909548 -247.681775 4994.275974 120.194447 -5.237 0.000 -11.788823 3.560946 1.049 1.36003e-05 0.000
64769.50 1806.13 100.271955 0.0632705575336169 -0.013779 248.286915 -1082528.337547 26.018014 -242.948606 4944.492268 120.234978 -5.243 0.000 -17.696445 3.561034 1.089 2.5038e-05 0.000
64351.50 1805.33 100.271941 0.0652678387296827 -0.007444 248.490417 -1083250.377140 26.124843 -238.260015 4895.368074 120.276899 -5.249 0.000 -33.652641 3.561164 1.130 4.50481e-05 0.000
63933.60 1804.52 100.271922 0.0673367303400297 -0.001137 248.692705 -1083978.871533 26.229949 -233.620218 4846.946365 120.320102 -5.255 0.000 -226.320366 3.561337 1.170 7.91914e-05 0.000
63515.80 1803.72 100.271900 0.0694894866461285 0.005163 248.895627 -1084710.406902 26.333493 -229.025808 4799.220737 120.364918 -5.261 0.000 51.251748 3.561558 1.210 0.000136179 0.000
63098.00 1802.91 100.271874 0.0717217770790912 0.011451 249.097627 -1085447.983338 26.435405 -224.479312 4752.208722 120.411144 -5.267 0.000 23.758352 3.561828 1.251 0.00022904 0.000
62680.20 1802.11 100.271843 0.0740472016047762 0.017749 249.300587 -1086188.132649 26.535850 -219.977379 4705.907789 120.459134 -5.273 0.000 15.764182 3.562153 1.291 0.000377184 0.000
62262.40 1801.31 100.271807 0.0764658208081497 0.024060 249.503767 -1086932.122422 26.634796 -215.521944 4660.341113 120.508824 -5.279 0.000 11.964900 3.562535 1.332 0.000608228 0.000
61844.70 1800.50 100.271767 0.0789764464506778 0.030379 249.706345 -1087681.105914 26.732190 -211.116037 4615.542486 120.560123 -5.285 0.000 9.751335 3.562977 1.372 0.000960396 0.000
61427.00 1799.70 100.271721 0.0815954872169716 0.036736 249.910323 -1088431.667201 26.828225 -206.755245 4571.504176 120.613440 -5.291 0.000 8.301681 3.563486 1.413 0.00148659 0.000
61009.30 1798.89 100.271670 0.0843174450502186 0.043120 250.114050 -1089186.724391 26.922808 -202.443303 4528.258297 120.668555 -5.297 0.000 7.282780 3.564063 1.453 0.00225536 0.000
60591.70 1798.09 100.271612 0.0871588119568973 0.049558 250.319438 -1089942.497792 27.016087 -198.178000 4485.823014 120.725872 -5.303 0.000 6.527647 3.564716 1.494 0.00335653 0.000
60174.10 1797.28 100.271549 0.0901144452633149 0.056041 250.524882 -1090702.088716 27.107993 -193.962038 4444.220999 120.785182 -5.309 0.000 5.947950 3.565448 1.534 0.00490013 0.000
59756.60 1796.48 100.271479 0.0932023720798576 0.062597 250.732334 -1091461.649492 27.198680 -189.793245 4403.475033 120.846921 -5.315 0.000 5.489081 3.566267 1.575 0.00702285 0.000
59339.10 1795.67 100.271403 0.0964169473765524 0.069218 250.940169 -1092224.326653 27.288078 -185.674407 4363.609193 120.910874 -5.322 0.000 5.118421 3.567175 1.615 0.00988141 0.000
58921.60 1794.87 100.271319 0.0997786704261319 0.075934 251.150445 -1092986.357830 27.376368 -181.602401 4324.641962 120.977526 -5.328 0.000 4.812856 3.568183 1.656 0.0136611 0.000
58504.20 1794.06 100.271228 0.1032792470454156 0.082731 251.361368 -1093750.649620 27.463434 -177.582135 4286.617331 121.046616 -5.334 0.000 4.557900 3.569292 1.696 0.0185556 0.000
58086.70 1793.26 100.271129 0.1069426080901460 0.089646 251.575171 -1094513.682999 27.549505 -173.608593 4249.541152 121.118700 -5.340 0.000 4.341940 3.570516 1.737 0.0247852 0.000
57669.40 1792.45 100.271023 0.1107570780893435 0.096659 251.789878 -1095278.146532 27.634421 -169.688729 4213.474831 121.193458 -5.346 0.000 4.157725 3.571853 1.778 0.0325506 0.000
57252.00 1791.64 100.270909 0.1147402999360210 0.103796 252.006826 -1096042.416830 27.718362 -165.818450 4178.421794 121.271286 -5.352 0.000 3.998905 3.573316 1.818 0.0420657 0.000
56834.70 1790.84 100.270786 0.1189056613047180 0.111076 252.227027 -1096804.080564 27.801402 -161.998599 4144.432989 121.352496 -5.358 0.000 3.860900 3.574915 1.859 0.0535161 0.000
56417.40 1790.03 100.270656 0.1232427863349506 0.118484 252.448695 -1097566.595913 27.883465 -158.232413 4111.532977 121.436817 -5.364 0.000 3.740488 3.576649 1.899 0.0670354 0.000
56000.20 1789.23 100.270518 0.1277743724449086 0.126050 252.673889 -1098325.948001 27.964717 -154.518152 4079.766482 121.524800 -5.371 0.000 3.634647 3.578535 1.939 0.0827323 0.000
55583.00 1788.42 100.270372 0.1324872753306867 0.133757 252.900741 -1099085.751082 28.045075 -150.859211 4049.155240 121.616136 -5.377 0.000 3.541383 3.580571 1.979 0.100622 0.000
