Title: Temperature in Celsius

System Thermodynamic Data:
Pressure Temperature mass F phi S H V dVdP*10^6 dVdT*10^6 Cp logfO2(absolute) logfO2(absolute) rhol rhos viscosity aH2O chisqr
500.00 1421.32 100.350000 0.8495397545057848 0.861876 260.000000 -1261485.593023 37.007957 -185.559457 2341.411670 147.538073 -9.902 -9.902 2.672767 2.953761 2.671 0.0189277 0.000
1500.00 1427.48 85.253314 0.9795069679854639 0.979906 223.767641 -1060822.683003 31.706099 -169.599111 2150.462757 128.318927 -9.705 -9.705 2.687768 2.742200 2.634 0.00804915 0.000
2500.00 1433.25 83.508216 0.9821050760141377 0.982402 219.548131 -1034063.689709 30.894499 -159.846331 2117.828714 125.692232 -9.517 -9.517 2.702196 2.748596 2.600 0.00588294 0.000
3500.00 1446.70 82.015842 0.9564567145536760 0.962346 215.931756 -1010902.556428 30.060977 -149.206301 2061.999980 122.496324 -9.255 -9.255 2.711619 3.155040 2.560 0.00508841 0.000
4500.00 1457.79 78.446603 0.9666634972607204 0.971302 207.579024 -961596.303285 28.687338 -140.110057 1986.880850 117.241772 -9.030 -9.030 2.721477 3.176573 2.528 0.00462852 0.000
5500.00 1468.44 75.833468 0.9699670793155377 0.974651 201.448909 -925036.053787 27.637807 -132.367439 1927.947033 113.233184 -8.821 -8.821 2.730645 3.250825 2.503 0.00434105 0.000
6500.00 1479.21 73.556967 0.9696852071937470 0.974485 196.116203 -893229.892453 26.722029 -125.294441 1871.998021 109.649474 -8.627 -8.627 2.739114 3.270483 2.483 0.00417571 0.000
7500.00 1489.99 71.329103 0.9700447018783358 0.974788 190.880637 -862328.288454 25.837494 -118.751064 1818.441794 106.159708 -8.443 -8.443 2.747250 3.280006 2.464 0.00408555 0.000
8500.00 1500.74 69.194418 0.9706217609190627 0.975249 185.847484 -832824.668169 24.995102 -112.700342 1768.154230 102.821784 -8.269 -8.269 2.755183 3.285901 2.445 0.00404657 0.000
9500.00 1511.46 67.163608 0.9712017918776931 0.975714 181.043592 -804821.371334 24.196391 -107.092247 1721.161508 99.646170 -8.103 -8.103 2.762933 3.291478 2.427 0.00404554 0.000
10500.00 1522.15 65.231417 0.9717821878603592 0.976179 176.458244 -778235.899951 23.438811 -101.882356 1677.337657 96.624234 -7.946 -7.946 2.770516 3.296755 2.409 0.00407434 0.000
11500.00 1532.80 63.392729 0.9723608325356138 0.976643 172.080890 -752988.583427 22.719943 -97.032234 1636.534058 93.747604 -7.798 -7.798 2.777946 3.301748 2.391 0.0041278 0.000
12500.00 1543.42 61.642607 0.9729364359445386 0.977105 167.901244 -729002.955422 22.037499 -92.508437 1598.588360 91.008237 -7.658 -7.658 2.785235 3.306474 2.374 0.00420255 0.000
13500.00 1554.01 59.976338 0.9735086154358029 0.977565 163.909422 -706206.331351 21.389338 -88.281739 1563.331742 88.398486 -7.527 -7.527 2.792396 3.310951 2.356 0.00429635 0.000
14500.00 1567.29 58.389482 0.9667974672700459 0.974513 160.096060 -684532.723815 20.723713 -83.714267 1517.019763 85.751513 -7.220 -7.220 2.795214 3.670391 2.343 0.00446959 0.000
15500.00 1580.50 56.451803 0.9678598275428481 0.975319 155.475829 -659181.766282 20.022370 -79.573445 1474.977332 82.749580 -6.918 -6.918 2.797873 3.671551 2.331 0.00465808 0.000
16500.00 1593.27 54.638432 0.9699636350365818 0.976931 151.140490 -635489.292841 19.369854 -75.811182 1437.267359 79.958594 -6.629 -6.629 2.800679 3.672800 2.319 0.00485425 0.000
17500.00 1605.63 52.998292 0.9719086905025098 0.978421 147.209651 -614019.663730 18.777679 -72.387961 1403.988545 77.427479 -6.351 -6.351 2.803624 3.674137 2.307 0.00505804 0.000
18500.00 1617.59 51.510501 0.9737116392498811 0.979800 143.635825 -594500.654217 18.238619 -69.261459 1374.630231 75.124553 -6.083 -6.083 2.806704 3.675560 2.295 0.00526949 0.000
19500.00 1629.19 50.157374 0.9753867323062373 0.981081 140.378654 -576701.974183 17.746550 -66.396064 1348.752520 73.022956 -5.826 -5.826 2.809912 3.677067 2.283 0.00548868 0.000
20500.00 1640.43 48.923838 0.9769462453012541 0.982274 137.403609 -560427.508422 17.296241 -63.761599 1325.974642 71.099766 -5.578 -5.578 2.813241 3.678657 2.271 0.00571571 0.000
21500.00 1651.33 47.796959 0.9784008136895934 0.983385 134.680968 -545509.211001 16.883203 -61.332327 1305.965555 69.335301 -5.339 -5.339 2.816687 3.680329 2.258 0.00595076 0.000
22500.00 1661.92 46.765584 0.9797597029902761 0.984423 132.185003 -531802.258177 16.503557 -59.086157 1288.436288 67.712563 -5.109 -5.109 2.820242 3.682083 2.246 0.00619401 0.000
23500.00 1672.20 45.820035 0.9810310280588470 0.985395 129.893323 -519181.168482 16.153935 -57.004027 1273.133672 66.216791 -4.886 -4.886 2.823902 3.683918 2.233 0.00644569 0.000
24500.00 1682.20 44.951876 0.9822219321671367 0.986305 127.786344 -507536.672942 15.831400 -55.069394 1259.835152 64.835104 -4.671 -4.671 2.827659 3.685834 2.221 0.00670604 0.000
25500.00 1691.92 44.153718 0.9833387340020343 0.987158 125.846859 -496773.172205 15.533375 -53.267833 1248.344480 63.556207 -4.463 -4.463 2.831509 3.687829 2.208 0.00697533 0.000
26500.00 1701.39 43.419061 0.9843870491100390 0.987959 124.059680 -486806.656503 15.257593 -51.586710 1238.488115 62.370148 -4.262 -4.262 2.835446 3.689904 2.194 0.00725385 0.000
27500.00 1710.60 42.742162 0.9853718906310815 0.988712 122.411348 -477562.993443 15.002049 -50.014906 1230.112196 61.268127 -4.068 -4.068 2.839464 3.692058 2.181 0.00754191 0.000
28500.00 1719.58 42.117925 0.9862977533056341 0.989420 120.889890 -468976.510198 14.764964 -48.542598 1223.079990 60.242322 -3.879 -3.879 2.843558 3.694292 2.167 0.00783986 0.000
29500.00 1728.34 41.541814 0.9871686838000344 0.990086 119.484612 -460988.812862 14.544751 -47.161076 1217.269718 59.285764 -3.697 -3.697 2.847722 3.696603 2.153 0.00814805 0.000
30500.00 1736.90 41.009778 0.9879883398937273 0.990713 118.185933 -453547.798126 14.339996 -45.862587 1212.572712 58.392212 -3.520 -3.520 2.851952 3.698994 2.139 0.00846687 0.000
31500.00 1746.18 40.518183 0.9855891545535449 0.988301 116.985238 -446606.903610 14.147033 -44.535992 1206.652630 57.525575 -3.427 -3.427 2.856218 3.527960 2.123 0.00884753 0.000
32500.00 1755.80 39.936282 0.9846141664836715 0.987270 115.537202 -438624.634394 13.923696 -43.189393 1198.750339 56.539030 -3.379 -3.379 2.860509 3.466599 2.105 0.0092734 0.000
33500.00 1765.36 39.323829 0.9849883146607631 0.987525 113.999377 -430306.611755 13.691177 -41.886245 1190.621474 55.519265 -3.344 -3.344 2.864825 3.456146 2.086 0.00972529 0.000
34500.00 1774.84 38.735512 0.9853302104292920 0.987788 112.516844 -422295.270341 13.467133 -40.639447 1182.370328 54.533848 -3.320 -3.320 2.869142 3.455272 2.068 0.0102058 0.000
35500.00 1784.04 38.170270 0.9856091460069838 0.988127 111.088144 -414545.799686 13.250277 -39.442919 1171.854484 53.579920 -3.303 -3.303 2.873375 3.491605 2.050 0.0107193 0.000
36500.00 1793.15 37.623967 0.9860575783986089 0.988471 109.706650 -406890.127197 13.042754 -38.309425 1161.932530 52.647581 -3.292 -3.292 2.877620 3.488610 2.033 0.0112598 0.000
37500.00 1802.17 37.102398 0.9864870133464754 0.988802 108.384005 -399550.294877 12.844242 -37.230072 1152.511407 51.750845 -3.288 -3.288 2.881877 3.485883 2.015 0.0118286 0.000
38500.00 1811.10 36.604034 0.9868987667966341 0.989121 107.116708 -392506.256217 12.654195 -36.201453 1143.556141 50.887384 -3.291 -3.291 2.886142 3.483419 1.997 0.0124271 0.000
39500.00 1819.96 36.127476 0.9872940447890243 0.989428 105.901557 -385739.705281 12.472116 -35.220433 1135.034857 50.055068 -3.300 -3.300 2.890413 3.481215 1.978 0.0130567 0.000

Title: Temperature in Celsius

Liquid Composition:
Pressure Temperature mass SiO2 TiO2 Al2O3 Fe2O3 Cr2O3 FeO MgO CaO Na2O K2O P2O5 H2O 
500.00 1421.32 85.251314 49.1783 1.18473 18.0916 1.04397 0.0351901 7.48515 6.40659 13.3764 2.83556 0.0341313 0.0938402 0.2346
1500.00 1427.48 83.506216 49.1829 1.20949 17.9185 1.06579 0.0359255 7.5897 6.3874 13.4065 2.83387 0.0345936 0.0958012 0.239503
2500.00 1433.25 82.013842 49.1843 1.2315 17.7731 1.08518 0.0365792 7.67943 6.36343 13.4393 2.83083 0.0349856 0.0975445 0.243861
3500.00 1446.70 78.444603 49.1474 1.24533 18.1431 1.09044 0.0382435 7.85655 6.04552 13.1153 2.92476 0.0364902 0.101983 0.254957
4500.00 1457.79 75.831468 49.1338 1.25316 18.4345 1.09112 0.0395614 7.98936 5.79489 12.8568 2.99981 0.0376924 0.105497 0.263743
5500.00 1468.44 73.555967 49.1422 1.25483 18.7541 1.0855 0.0407853 8.09574 5.53206 12.598 3.07728 0.0388587 0.108761 0.271902
6500.00 1479.21 71.327103 49.2032 1.25511 19.031 1.07414 0.0334847 8.19667 5.26884 12.3486 3.15622 0.040073 0.112159 0.280398
7500.00 1489.99 69.192418 49.2866 1.25416 19.2834 1.0598 0.0257471 8.29428 5.01349 12.102 3.23449 0.0413093 0.11562 0.289049
8500.00 1500.74 67.161608 49.3813 1.25225 19.5183 1.04336 0.0195193 8.38957 4.76883 11.8562 3.31121 0.0425584 0.119116 0.297789
9500.00 1511.46 65.229417 49.4862 1.24974 19.7363 1.02492 0.0146104 8.48273 4.53497 11.6113 3.38614 0.043819 0.122644 0.30661
10500.00 1522.15 63.390729 49.6 1.24699 19.9381 1.00459 0.0108171 8.57398 4.31194 11.3678 3.45906 0.04509 0.126201 0.315504
11500.00 1532.80 61.640607 49.7215 1.24432 20.1242 0.982502 0.00794117 8.66355 4.09968 11.126 3.52973 0.0463702 0.129785 0.324461
12500.00 1543.42 59.974338 49.8498 1.24203 20.295 0.958793 0.00580064 8.75165 3.89806 10.8864 3.59797 0.0476585 0.13339 0.333476
13500.00 1554.01 58.387482 49.9841 1.24035 20.4508 0.933614 0.00423599 8.83853 3.70692 10.6494 3.66357 0.0489538 0.137016 0.342539
14500.00 1567.29 56.450803 50.2996 1.28294 20.3617 0.965747 0.00444732 8.68033 3.41035 10.659 3.78928 0.0506332 0.141716 0.354291
15500.00 1580.50 54.637432 50.6176 1.32552 20.273 0.997799 0.00459493 8.52064 3.12351 10.6575 3.91504 0.0523137 0.14642 0.366049
16500.00 1593.27 52.997292 50.9255 1.36654 20.1885 1.02868 0.00473713 8.36532 2.85638 10.6459 4.0362 0.0539327 0.150951 0.377378
17500.00 1605.63 51.509501 51.2232 1.40601 20.108 1.05839 0.00487395 8.21441 2.60791 10.6253 4.15278 0.0554905 0.155311 0.388278
18500.00 1617.59 50.156374 51.5107 1.44394 20.0314 1.08694 0.00500544 8.06794 2.37707 10.5969 4.26481 0.0569875 0.159501 0.398753
19500.00 1629.19 48.922838 51.788 1.48035 19.9586 1.11435 0.00513165 7.92592 2.1629 10.5616 4.37235 0.0584244 0.163523 0.408807
20500.00 1640.43 47.795959 52.0549 1.51525 19.8896 1.14062 0.00525264 7.78836 1.96446 10.5205 4.47543 0.0598019 0.167378 0.418445
21500.00 1651.33 46.764584 52.3117 1.54867 19.824 1.16578 0.00536848 7.65525 1.78087 10.4743 4.57414 0.0611208 0.17107 0.427674
22500.00 1661.92 45.819035 52.5583 1.58063 19.762 1.18984 0.00547927 7.52659 1.61126 10.4239 4.66853 0.0623821 0.1746 0.4365
23500.00 1672.20 44.950876 52.7948 1.61116 19.7033 1.21282 0.0055851 7.40234 1.45483 10.37 4.7587 0.0635869 0.177972 0.44493
24500.00 1682.20 44.152718 53.0214 1.64028 19.6478 1.23474 0.00568606 7.28248 1.31077 10.3132 4.84472 0.0647364 0.181189 0.452973
25500.00 1691.92 43.418061 53.2382 1.66804 19.5954 1.25563 0.00578227 7.16697 1.17835 10.2542 4.9267 0.0658318 0.184255 0.460638
26500.00 1701.39 42.741162 53.4454 1.69445 19.546 1.27552 0.00587384 7.05575 1.05683 10.1935 5.00472 0.0668744 0.187173 0.467933
27500.00 1710.60 42.116925 53.6432 1.71957 19.4994 1.29443 0.0059609 6.94878 0.945536 10.1315 5.0789 0.0678655 0.189947 0.474868
28500.00 1719.58 41.540814 53.8316 1.74341 19.4557 1.31238 0.00604357 6.84599 0.843802 10.0689 5.14934 0.0688067 0.192582 0.481454
29500.00 1728.34 41.008778 54.0111 1.76603 19.4145 1.3294 0.00612198 6.74732 0.750997 10.0059 5.21614 0.0696994 0.19508 0.4877
30500.00 1736.90 40.517183 54.1817 1.78746 19.3759 1.34553 0.00619626 6.6527 0.666521 9.94287 5.27943 0.0705451 0.197447 0.493618
31500.00 1746.18 39.934282 54.3722 1.80887 19.3231 1.31853 0.0062867 6.61907 0.599222 9.85782 5.32215 0.0715748 0.200329 0.500823
32500.00 1755.80 39.321829 54.5708 1.83056 19.2586 1.27029 0.00638462 6.61756 0.543099 9.76569 5.35222 0.0726896 0.203449 0.508623
33500.00 1765.36 38.733512 54.7658 1.85212 19.1892 1.21944 0.0064816 6.62321 0.493194 9.67671 5.37721 0.0737937 0.206539 0.516349
34500.00 1774.84 38.167270 54.9713 1.87375 19.0894 1.16813 0.00657775 6.63737 0.449893 9.5963 5.39881 0.0748884 0.209604 0.524009
35500.00 1784.04 37.620967 55.2405 1.89595 18.8657 1.12291 0.00667327 6.66544 0.41583 9.54361 5.42319 0.0759759 0.212647 0.531618
36500.00 1793.15 37.099398 55.5049 1.9179 18.6398 1.07766 0.00676709 6.69654 0.385148 9.495 5.4445 0.077044 0.215637 0.539092
37500.00 1802.17 36.601034 55.7648 1.93961 18.4118 1.03261 0.00685923 6.73043 0.357522 9.45044 5.46291 0.0780931 0.218573 0.546433
38500.00 1811.10 36.124476 56.0201 1.96106 18.1818 0.987938 0.00694972 6.76689 0.33266 9.40984 5.47862 0.0791233 0.221456 0.553641
39500.00 1819.96 35.668442 56.2709 1.98226 17.9499 0.943828 0.00703857 6.80571 0.310299 9.37312 5.4918 0.0801349 0.224288 0.56072
Title: Temperature in Celsius

liquid_0 thermodynamic data and composition:
Pressure Temperature mass S H V Cp viscosity SiO2 TiO2 Al2O3 Fe2O3 Cr2O3 FeO MgO CaO Na2O K2O P2O5 H2O Mg#
500.00 1421.32 85.251314 223.762838 -1063976.438006 31.896276 128.871825 2.671 49.1783 1.18473 18.0916 1.04397 0.0351901 7.48515 6.40659 13.3764 2.83556 0.0341313 0.0938402 0.2346 60.4
1500.00 1427.48 83.506216 219.543319 -1037135.629490 31.068984 126.168025 2.634 49.1829 1.20949 17.9185 1.06579 0.0359255 7.5897 6.3874 13.4065 2.83387 0.0345936 0.0958012 0.239503 60.0
2500.00 1433.25 82.013842 215.926934 -1013895.274525 30.350813 123.851939 2.600 49.1843 1.2315 17.7731 1.08518 0.0365792 7.67943 6.36343 13.4393 2.83083 0.0349856 0.0975445 0.243861 59.6
3500.00 1446.70 78.444603 207.574257 -964450.454881 28.929061 118.241585 2.560 49.1474 1.24533 18.1431 1.09044 0.0382435 7.85655 6.04552 13.1153 2.92476 0.0364902 0.101983 0.254957 57.8
4500.00 1457.79 75.831468 201.444124 -927784.617523 27.864082 114.130769 2.528 49.1338 1.25316 18.4345 1.09112 0.0395614 7.98936 5.79489 12.8568 2.99981 0.0376924 0.105497 0.263743 56.3
5500.00 1468.44 73.555967 196.113860 -895900.027512 26.937216 110.536353 2.503 49.1422 1.25483 18.7541 1.0855 0.0407853 8.09574 5.53206 12.598 3.07728 0.0388587 0.108761 0.271902 54.9
6500.00 1479.21 71.327103 190.875943 -864897.802309 26.040214 107.009883 2.483 49.2032 1.25511 19.031 1.07414 0.0334847 8.19667 5.26884 12.3486 3.15622 0.040073 0.112159 0.280398 53.4
7500.00 1489.99 69.192418 185.842770 -835309.344173 25.186067 103.631421 2.464 49.2866 1.25416 19.2834 1.0598 0.0257471 8.29428 5.01349 12.102 3.23449 0.0413093 0.11562 0.289049 51.8
8500.00 1500.74 67.161608 181.038859 -807225.643856 24.376456 100.417524 2.445 49.3813 1.25225 19.5183 1.04336 0.0195193 8.38957 4.76883 11.8562 3.31121 0.0425584 0.119116 0.297789 50.3
9500.00 1511.46 65.229417 176.453494 -780563.941489 23.608755 97.359468 2.427 49.4862 1.24974 19.7363 1.02492 0.0146104 8.48273 4.53497 11.6113 3.38614 0.043819 0.122644 0.30661 48.8
10500.00 1522.15 63.390729 172.076123 -755244.318407 22.880478 94.448786 2.409 49.6 1.24699 19.9381 1.00459 0.0108171 8.57398 4.31194 11.3678 3.45906 0.04509 0.126201 0.315504 47.3
11500.00 1532.80 61.640607 167.896461 -731190.074227 22.189278 91.677322 2.391 49.7215 1.24432 20.1242 0.982502 0.00794117 8.66355 4.09968 11.126 3.52973 0.0463702 0.129785 0.324461 45.7
12500.00 1543.42 59.974338 163.904624 -708328.305138 21.532953 89.037310 2.374 49.8498 1.24203 20.295 0.958793 0.00580064 8.75165 3.89806 10.8864 3.59797 0.0476585 0.13339 0.333476 44.2
13500.00 1554.01 58.387482 160.091247 -686590.436822 20.909459 86.521441 2.356 49.9841 1.24035 20.4508 0.933614 0.00423599 8.83853 3.70692 10.6494 3.66357 0.0489538 0.137016 0.342539 42.8
14500.00 1567.29 56.450803 155.473444 -661180.522395 20.195519 83.476270 2.343 50.2996 1.28294 20.3617 0.965747 0.00444732 8.68033 3.41035 10.659 3.78928 0.0506332 0.141716 0.354291 41.2
15500.00 1580.50 54.637432 151.138099 -637422.122264 19.528200 80.622680 2.331 50.6176 1.32552 20.273 0.997799 0.00459493 8.52064 3.12351 10.6575 3.91504 0.0523137 0.14642 0.366049 39.5
16500.00 1593.27 52.997292 147.207254 -615892.688041 18.923018 78.037089 2.319 50.9255 1.36654 20.1885 1.02868 0.00473713 8.36532 2.85638 10.6459 4.0362 0.0539327 0.150951 0.377378 37.8
17500.00 1605.63 51.509501 143.633423 -596319.259049 18.372470 75.686548 2.307 51.2232 1.40601 20.108 1.05839 0.00487395 8.21441 2.60791 10.6253 4.15278 0.0554905 0.155311 0.388278 36.1
18500.00 1617.59 50.156374 140.376247 -578470.921589 17.870206 73.543172 2.295 51.5107 1.44394 20.0314 1.08694 0.00500544 8.06794 2.37707 10.5969 4.26481 0.0569875 0.159501 0.398753 34.4
19500.00 1629.19 48.922838 137.401197 -562151.028557 17.410810 71.583198 2.283 51.788 1.48035 19.9586 1.11435 0.00513165 7.92592 2.1629 10.5616 4.37235 0.0584244 0.163523 0.408807 32.7
20500.00 1640.43 47.795959 134.678552 -547191.077530 16.989641 69.786249 2.271 52.0549 1.51525 19.8896 1.14062 0.00525264 7.78836 1.96446 10.5205 4.47543 0.0598019 0.167378 0.418445 31.0
21500.00 1651.33 46.764584 132.182583 -533445.850737 16.602691 68.134754 2.258 52.3117 1.54867 19.824 1.16578 0.00536848 7.65525 1.78087 10.4743 4.57414 0.0611208 0.17107 0.427674 29.3
22500.00 1661.92 45.819035 129.890899 -520789.524775 16.246488 66.613471 2.246 52.5583 1.58063 19.762 1.18984 0.00547927 7.52659 1.61126 10.4239 4.66853 0.0623821 0.1746 0.4365 27.6
23500.00 1672.20 44.950876 127.783917 -509112.532461 15.918002 65.209116 2.233 52.7948 1.61116 19.7033 1.21282 0.0055851 7.40234 1.45483 10.37 4.7587 0.0635869 0.177972 0.44493 25.9
24500.00 1682.20 44.152718 125.844429 -498319.013144 15.614581 63.910052 2.221 53.0214 1.64028 19.6478 1.23474 0.00568606 7.28248 1.31077 10.3132 4.84472 0.0647364 0.181189 0.452973 24.3
25500.00 1691.92 43.418061 124.057247 -488324.727097 15.333893 62.706040 2.208 53.2382 1.66804 19.5954 1.25563 0.00578227 7.16697 1.17835 10.2542 4.9267 0.0658318 0.184255 0.460638 22.6
26500.00 1701.39 42.741162 122.408913 -479055.338712 15.073876 61.588032 2.194 53.4454 1.69445 19.546 1.27552 0.00587384 7.05575 1.05683 10.1935 5.00472 0.0668744 0.187173 0.467933 21.0
27500.00 1710.60 42.116925 120.887452 -470444.994879 14.832703 60.547995 2.181 53.6432 1.71957 19.4994 1.29443 0.0059609 6.94878 0.945536 10.1315 5.0789 0.0678655 0.189947 0.474868 19.5
28500.00 1719.58 41.540814 119.482172 -462435.141177 14.608747 59.578778 2.167 53.8316 1.74341 19.4557 1.31238 0.00604357 6.84599 0.843802 10.0689 5.14934 0.0688067 0.192582 0.481454 18.0
29500.00 1728.34 41.008778 118.183492 -454973.530875 14.400555 58.673982 2.153 54.0111 1.76603 19.4145 1.3294 0.00612198 6.74732 0.750997 10.0059 5.21614 0.0696994 0.19508 0.4877 16.5
30500.00 1736.90 40.517183 116.982796 -448013.391226 14.206826 57.827869 2.139 54.1817 1.78746 19.3759 1.34553 0.00619626 6.6527 0.666521 9.94287 5.27943 0.0705451 0.197447 0.493618 15.1
31500.00 1746.18 39.934282 115.532231 -439997.290405 13.981527 56.844550 2.123 54.3722 1.80887 19.3231 1.31853 0.0062867 6.61907 0.599222 9.85782 5.32215 0.0715748 0.200329 0.500823 13.9
32500.00 1755.80 39.321829 113.994398 -431655.970066 13.746446 55.816517 2.105 54.5708 1.83056 19.2586 1.27029 0.00638462 6.61756 0.543099 9.76569 5.35222 0.0726896 0.203449 0.508623 12.7
33500.00 1765.36 38.733512 112.511855 -423622.218038 13.520374 54.823487 2.086 54.7658 1.85212 19.1892 1.21944 0.0064816 6.62321 0.493194 9.67671 5.37721 0.0737937 0.206539 0.516349 11.7
34500.00 1774.84 38.167270 111.080678 -415837.259539 13.302677 53.860896 2.068 54.9713 1.87375 19.0894 1.16813 0.00657775 6.63737 0.449893 9.5963 5.39881 0.0748884 0.209604 0.524009 10.7
35500.00 1784.04 37.620967 109.699171 -408160.843495 13.092956 52.920812 2.050 55.2405 1.89595 18.8657 1.12291 0.00667327 6.66544 0.41583 9.54361 5.42319 0.0759759 0.212647 0.531618 10.0
36500.00 1793.15 37.099398 108.376511 -400801.174203 12.892388 52.016950 2.033 55.5049 1.9179 18.6398 1.07766 0.00676709 6.69654 0.385148 9.495 5.4445 0.077044 0.215637 0.539092 9.3
37500.00 1802.17 36.601034 107.109199 -393738.150162 12.700415 51.146936 2.015 55.7648 1.93961 18.4118 1.03261 0.00685923 6.73043 0.357522 9.45044 5.46291 0.0780931 0.218573 0.546433 8.6
